TITLE	0,154
DATA TYPE	
ORIGIN	JASCO
OWNER	
DATE	13/10/07
TIME	12:09:33
SPECTROMETER/DATA SYSTEM	
RESOLUTION	
DELTAX	0.2
XUNITS	NANOMETERS
YUNITS	INTENSITY
FIRSTX	300.0000
LASTX	400.0000
NPOINTS	501
FIRSTY	999.99902
MAXY	999.99902
MINY	128.09390
XYDATA
300.0000	999.999
300.2000	999.999
300.4000	999.999
300.6000	999.999
300.8000	999.999
301.0000	999.999
301.2000	999.999
301.4000	999.999
301.6000	999.999
301.8000	999.999
302.0000	999.999
302.2000	999.999
302.4000	999.999
302.6000	999.999
302.8000	999.999
303.0000	999.999
303.2000	999.999
303.4000	999.999
303.6000	999.999
303.8000	999.999
304.0000	999.999
304.2000	999.999
304.4000	999.999
304.6000	999.999
304.8000	999.999
305.0000	999.999
305.2000	959.041
305.4000	732.257
305.6000	609.914
305.8000	462.67
306.0000	386.649
306.2000	324.16
306.4000	253.077
306.6000	218.579
306.8000	181.343
307.0000	164.05
307.2000	151.033
307.4000	138.202
307.6000	133.366
307.8000	129.064
308.0000	128.243
308.2000	128.094
308.4000	128.89
308.6000	130.185
308.8000	132.827
309.0000	134.578
309.2000	136.665
309.4000	139.55
309.6000	141.763
309.8000	144.761
310.0000	146.791
310.2000	149.048
310.4000	152.068
310.6000	154.333
310.8000	157.358
311.0000	159.607
311.2000	161.761
311.4000	165.174
311.6000	167.694
311.8000	170.056
312.0000	173.523
312.2000	175.821
312.4000	179.288
312.6000	181.543
312.8000	184.024
313.0000	187.801
313.2000	190.209
313.4000	193.784
313.6000	196.249
313.8000	198.79
314.0000	202.596
314.2000	205.123
314.4000	209.157
314.6000	211.518
314.8000	214.38
315.0000	218.206
315.2000	220.826
315.4000	225.115
315.6000	227.795
315.8000	230.29
316.0000	233.894
316.2000	236.501
316.4000	240.257
316.6000	242.98
316.8000	245.664
317.0000	249.758
317.2000	252.531
317.4000	257.023
317.6000	260.165
317.8000	263.033
318.0000	267.561
318.2000	270.668
318.4000	274.879
318.6000	277.737
318.8000	280.752
319.0000	285.373
319.2000	288.239
319.4000	292.322
319.6000	295.155
319.8000	297.93
320.0000	302.039
320.2000	304.999
320.4000	309.305
320.6000	312.02
320.8000	314.698
321.0000	319.061
321.2000	322.222
321.4000	326.786
321.6000	330.071
321.8000	333.298
322.0000	337.823
322.2000	340.896
322.4000	343.797
322.6000	348.542
322.8000	351.681
323.0000	356.129
323.2000	359.202
323.4000	362.111
323.6000	366.203
323.8000	369.033
324.0000	373.784
324.2000	376.767
324.4000	379.649
324.6000	383.785
324.8000	386.762
325.0000	391.394
325.2000	394.512
325.4000	397.697
325.6000	402.122
325.8000	405.09
326.0000	409.251
326.2000	412.201
326.4000	415.531
326.6000	419.806
326.8000	423.039
327.0000	427.387
327.2000	430.597
327.4000	433.483
327.6000	438.246
327.8000	441.485
328.0000	445.981
328.2000	448.711
328.4000	451.292
328.6000	455.472
328.8000	458.396
329.0000	462.84
329.2000	465.612
329.4000	468.201
329.6000	471.866
329.8000	474.651
330.0000	478.648
330.2000	481.369
330.4000	484.06
330.6000	487.982
330.8000	490.696
331.0000	494.518
331.2000	497.518
331.4000	500.18
331.6000	504.406
331.8000	507.126
332.0000	510.569
332.2000	512.971
332.4000	515.127
332.6000	518.78
332.8000	521.023
333.0000	523.079
333.2000	525.819
333.4000	527.966
333.6000	531.16
333.8000	533.158
334.0000	535.392
334.2000	538.277
334.4000	539.923
334.6000	542.759
334.8000	544.511
335.0000	546.057
335.2000	548.23
335.4000	549.762
335.6000	551.429
335.8000	552.438
336.0000	553.693
336.2000	555.551
336.4000	556.449
336.6000	557.524
336.8000	558.612
337.0000	559.43
337.2000	561.424
337.4000	562.701
337.6000	564.345
337.8000	565.049
338.0000	566.217
338.2000	567.402
338.4000	568.056
338.6000	569.059
338.8000	569.348
339.0000	569.93
339.2000	570.801
339.4000	571.778
339.6000	572.416
339.8000	573.493
340.0000	574.414
340.2000	575.157
340.4000	576.016
340.6000	577.161
340.8000	577.878
341.0000	578.161
341.2000	578.623
341.4000	578.647
341.6000	579.049
341.8000	579.671
342.0000	579.945
342.2000	580.547
342.4000	580.417
342.6000	581.003
342.8000	581.057
343.0000	581.286
343.2000	581.042
343.4000	580.841
343.6000	580.283
343.8000	579.809
344.0000	579.505
344.2000	579.451
344.4000	579.702
344.6000	579.954
344.8000	580.479
345.0000	580.704
345.2000	581.451
345.4000	581.424
345.6000	581.425
345.8000	580.896
346.0000	580.21
346.2000	579.195
346.4000	578.562
346.6000	577.848
346.8000	576.613
347.0000	576.248
347.2000	576.305
347.4000	576.226
347.6000	576.172
347.8000	575.941
348.0000	575.855
348.2000	575.556
348.4000	574.944
348.6000	574.295
348.8000	572.553
349.0000	571.96
349.2000	570.385
349.4000	569.603
349.6000	568.604
349.8000	567.171
350.0000	566.404
350.2000	565.246
350.4000	564.873
350.6000	563.733
350.8000	562.53
351.0000	561.92
351.2000	560.732
351.4000	559.92
351.6000	558.901
351.8000	557.278
352.0000	556.427
352.2000	554.788
352.4000	553.441
352.6000	552.246
352.8000	550.234
353.0000	548.74
353.2000	547.055
353.4000	546.211
353.6000	545.129
353.8000	543.264
354.0000	542.378
354.2000	541.367
354.4000	540.456
354.6000	539.627
354.8000	538.225
355.0000	537.046
355.2000	535.501
355.4000	533.722
355.6000	532.136
355.8000	530.196
356.0000	528.349
356.2000	526.344
356.4000	523.658
356.6000	521.853
356.8000	519.411
357.0000	517.777
357.2000	516.167
357.4000	514.009
357.6000	512.678
357.8000	511.077
358.0000	510.051
358.2000	509.049
358.4000	506.895
358.6000	505.585
358.8000	503.918
359.0000	502.591
359.2000	500.878
359.4000	498.107
359.6000	496.025
359.8000	492.726
360.0000	491.644
360.2000	490.386
360.4000	487.55
360.6000	485.834
360.8000	483.99
361.0000	482.84
361.2000	481.734
361.4000	480.23
361.6000	478.729
361.8000	475.953
362.0000	474.883
362.2000	473.359
362.4000	470.871
362.6000	468.266
362.8000	465.54
363.0000	463.781
363.2000	462.009
363.4000	459.153
363.6000	457.375
363.8000	454.249
364.0000	452.666
364.2000	451.117
364.4000	448.571
364.6000	446.773
364.8000	444.96
365.0000	443.04
365.2000	441.395
365.4000	438.724
365.6000	437.043
365.8000	435.173
366.0000	432.519
366.2000	430.885
366.4000	428.24
366.6000	426.387
366.8000	424.489
367.0000	422.128
367.2000	420.418
367.4000	417.632
367.6000	416.154
367.8000	414.328
368.0000	411.605
368.2000	409.928
368.4000	407.338
368.6000	405.533
368.8000	403.737
369.0000	401.059
369.2000	399.162
369.4000	396.243
369.6000	394.443
369.8000	392.372
370.0000	389.761
370.2000	387.928
370.4000	385.075
370.6000	383.253
370.8000	381.477
371.0000	379.062
371.2000	377.284
371.4000	374.841
371.6000	373.034
371.8000	371.001
372.0000	368.546
372.2000	366.581
372.4000	363.893
372.6000	361.918
372.8000	360.17
373.0000	357.814
373.2000	356.133
373.4000	353.418
373.6000	351.826
373.8000	349.935
374.0000	347.341
374.2000	345.581
374.4000	343.967
374.6000	341.396
374.8000	339.382
375.0000	336.545
375.2000	334.391
375.4000	332.805
375.6000	330.134
375.8000	328.53
376.0000	325.758
376.2000	323.958
376.4000	321.992
376.6000	319.578
376.8000	318.12
377.0000	315.301
377.2000	313.651
377.4000	311.94
377.6000	309.177
377.8000	307.44
378.0000	304.905
378.2000	303.504
378.4000	301.647
378.6000	299.281
378.8000	297.608
379.0000	294.917
379.2000	293.387
379.4000	291.627
379.6000	289.261
379.8000	287.675
380.0000	284.816
380.2000	283.133
380.4000	281.658
380.6000	279.313
380.8000	278.041
381.0000	275.848
381.2000	274.597
381.4000	272.986
381.6000	270.697
381.8000	269.333
382.0000	267.03
382.2000	265.767
382.4000	264.391
382.6000	261.887
382.8000	260.195
383.0000	257.626
383.2000	255.836
383.4000	254.122
383.6000	251.814
383.8000	250.318
384.0000	247.645
384.2000	246.019
384.4000	244.524
384.6000	242.248
384.8000	240.792
385.0000	239.236
385.2000	237.047
385.4000	235.838
385.6000	233.474
385.8000	232.27
386.0000	230.706
386.2000	228.624
386.4000	227.386
386.6000	225.444
386.8000	224.222
387.0000	222.667
387.2000	220.648
387.4000	219.321
387.6000	217.409
387.8000	216.054
388.0000	214.674
388.2000	212.667
388.4000	211.222
388.6000	209.142
388.8000	207.966
389.0000	206.571
389.2000	204.412
389.4000	203.241
389.6000	201.386
389.8000	200.363
390.0000	199.043
390.2000	197.407
390.4000	196.247
390.6000	194.295
390.8000	193.261
391.0000	191.889
391.2000	190.031
391.4000	188.776
391.6000	186.89
391.8000	185.606
392.0000	184.538
392.2000	182.896
392.4000	181.845
392.6000	180.163
392.8000	178.888
393.0000	177.832
393.2000	176.189
393.4000	175.161
393.6000	173.318
393.8000	172.039
394.0000	170.776
394.2000	169.12
394.4000	168.041
394.6000	166.188
394.8000	164.95
395.0000	164.054
395.2000	162.166
395.4000	161.003
395.6000	159.951
395.8000	158.379
396.0000	157.084
396.2000	155.649
396.4000	154.769
396.6000	153.769
396.8000	152.246
397.0000	151.42
397.2000	149.851
397.4000	148.927
397.6000	147.911
397.8000	146.665
398.0000	145.603
398.2000	144.096
398.4000	142.968
398.6000	141.978
398.8000	140.658
399.0000	139.717
399.2000	138.058
399.4000	137.201
399.6000	136.364
399.8000	134.948
400.0000	134.096
