TITLE	0,012
DATA TYPE	
ORIGIN	JASCO
OWNER	
DATE	13/10/07
TIME	12:45:17
SPECTROMETER/DATA SYSTEM	
RESOLUTION	
DELTAX	0.2
XUNITS	NANOMETERS
YUNITS	INTENSITY
FIRSTX	300.0000
LASTX	400.0000
NPOINTS	501
FIRSTY	999.99902
MAXY	999.99902
MINY	103.40197
XYDATA
300.0000	999.999
300.2000	999.999
300.4000	999.999
300.6000	999.999
300.8000	999.999
301.0000	999.999
301.2000	999.999
301.4000	999.999
301.6000	999.999
301.8000	999.999
302.0000	999.999
302.2000	999.999
302.4000	999.999
302.6000	999.999
302.8000	999.999
303.0000	999.999
303.2000	999.999
303.4000	999.999
303.6000	999.999
303.8000	999.999
304.0000	999.999
304.2000	999.999
304.4000	999.999
304.6000	999.999
304.8000	909.198
305.0000	703.963
305.2000	591.513
305.4000	494.47
305.6000	376.38
305.8000	314.969
306.0000	242.23
306.2000	206.729
306.4000	178.294
306.6000	147.379
306.8000	132.991
307.0000	117.809
307.2000	111.588
307.4000	107.278
307.6000	104.273
307.8000	103.402
308.0000	103.752
308.2000	104.751
308.4000	105.88
308.6000	108.2
308.8000	110.135
309.0000	112.102
309.2000	115.118
309.4000	117.023
309.6000	120.256
309.8000	122.282
310.0000	124.67
310.2000	128.013
310.4000	130.123
310.6000	133.265
310.8000	135.531
311.0000	137.814
311.2000	141.524
311.4000	143.778
311.6000	147.293
311.8000	149.728
312.0000	152.098
312.2000	155.981
312.4000	158.644
312.6000	162.296
312.8000	164.809
313.0000	167.429
313.2000	171.289
313.4000	174.297
313.6000	178.292
313.8000	180.947
314.0000	183.703
314.2000	187.819
314.4000	190.622
314.6000	194.704
314.8000	197.611
315.0000	200.324
315.2000	204.395
315.4000	207.393
315.6000	211.82
315.8000	214.858
316.0000	217.747
316.2000	222.545
316.4000	225.702
316.6000	230.559
316.8000	234.07
317.0000	237.241
317.2000	242.128
317.4000	245.589
317.6000	250.299
317.8000	253.41
318.0000	256.821
318.2000	261.348
318.4000	264.479
318.6000	268.934
318.8000	272.134
319.0000	275.424
319.2000	280.728
319.4000	284.157
319.6000	287.393
319.8000	292.778
320.0000	296.214
320.2000	301.915
320.4000	305.588
320.6000	309.033
320.8000	314.11
321.0000	317.669
321.2000	323.111
321.4000	326.681
321.6000	330.226
321.8000	335.752
322.0000	339.096
322.2000	344.071
322.4000	347.872
322.6000	351.525
322.8000	357.002
323.0000	360.777
323.2000	366.532
323.4000	370.232
323.6000	374.055
323.8000	380.309
324.0000	384.22
324.2000	389.5
324.4000	393.029
324.6000	396.59
324.8000	401.675
325.0000	405.119
325.2000	410.013
325.4000	413.502
325.6000	416.876
325.8000	422.356
326.0000	425.998
326.2000	431.564
326.4000	435.535
326.6000	439.135
326.8000	445.257
327.0000	449.33
327.2000	455.186
327.4000	458.666
327.6000	462.28
327.8000	467.773
328.0000	471.245
328.2000	476.479
328.4000	479.904
328.6000	482.768
328.8000	487.298
329.0000	490.444
329.2000	493.884
329.4000	499.135
329.6000	502.559
329.8000	508.176
330.0000	511.713
330.2000	515.396
330.4000	521.607
330.6000	525.354
330.8000	531
331.0000	534.262
331.2000	537.558
331.4000	542.662
331.6000	545.659
331.8000	550.555
332.0000	553.345
332.2000	556.083
332.4000	560.122
332.6000	563.259
332.8000	568.191
333.0000	570.953
333.2000	573.655
333.4000	577.543
333.6000	580.388
333.8000	584.812
334.0000	587.465
334.2000	589.703
334.4000	592.82
334.6000	595.161
334.8000	598.958
335.0000	601.583
335.2000	603.777
335.4000	606.648
335.6000	608.031
335.8000	611.066
336.0000	612.998
336.2000	614.748
336.4000	617.582
336.6000	618.956
336.8000	621.048
337.0000	622.421
337.2000	624.554
337.4000	627.135
337.6000	628.884
337.8000	631.309
338.0000	632.626
338.2000	633.93
338.4000	635.491
338.6000	637.096
338.8000	638.447
339.0000	640.094
339.2000	641.091
339.4000	642.929
339.6000	643.882
339.8000	644.995
340.0000	647.627
340.2000	649.409
340.4000	651.443
340.6000	652.256
340.8000	652.738
341.0000	654.116
341.2000	655.384
341.4000	656.845
341.6000	657.507
341.8000	657.75
342.0000	658.008
342.2000	658.746
342.4000	660.354
342.6000	660.949
342.8000	661.537
343.0000	662.505
343.2000	663.309
343.4000	664.116
343.6000	664.747
343.8000	665.476
344.0000	666.568
344.2000	667.111
344.4000	668.207
344.6000	668.334
344.8000	668.695
345.0000	669.244
345.2000	669.555
345.4000	670.043
345.6000	669.943
345.8000	669.898
346.0000	669.521
346.2000	669.486
346.4000	669.326
346.6000	669.435
346.8000	668.87
347.0000	668.625
347.2000	668.465
347.4000	668.06
347.6000	668.131
347.8000	667.741
348.0000	667.104
348.2000	666.639
348.4000	666.119
348.6000	665.587
348.8000	665.484
349.0000	664.487
349.2000	663.995
349.4000	663.294
349.6000	662.838
349.8000	662.595
350.0000	661.989
350.2000	660.951
350.4000	660.424
350.6000	659.32
350.8000	658.256
351.0000	656.835
351.2000	656.011
351.4000	655.032
351.6000	653.826
351.8000	653.141
352.0000	651.204
352.2000	650.41
352.4000	649.75
352.6000	648.851
352.8000	647.839
353.0000	645.871
353.2000	644.806
353.4000	643.234
353.6000	641.366
353.8000	640.013
354.0000	638.136
354.2000	636.664
354.4000	635.238
354.6000	633.751
354.8000	633.074
355.0000	631.508
355.2000	630.776
355.4000	630.189
355.6000	628.559
355.8000	627.922
356.0000	625.71
356.2000	624.228
356.4000	622.458
356.6000	619.755
356.8000	618.118
357.0000	615.335
357.2000	614.292
357.4000	612.542
357.6000	610.009
357.8000	609.005
358.0000	606.874
358.2000	605.351
358.4000	604.247
358.6000	602.218
358.8000	600.405
359.0000	597.798
359.2000	596.151
359.4000	594.599
359.6000	591.892
359.8000	590.361
360.0000	587.958
360.2000	586.175
360.4000	584.657
360.6000	581.93
360.8000	580.014
361.0000	578.496
361.2000	576.006
361.4000	573.975
361.6000	571.262
361.8000	569.508
362.0000	567.592
362.2000	564.978
362.4000	563.343
362.6000	560.445
362.8000	558.425
363.0000	556.73
363.2000	553.707
363.4000	551.448
363.6000	547.859
363.8000	545.996
364.0000	543.857
364.2000	540.871
364.4000	538.917
364.6000	536.742
364.8000	535.422
365.0000	533.824
365.2000	531.656
365.4000	530.003
365.6000	527.065
365.8000	525.049
366.0000	523.294
366.2000	519.891
366.4000	517.33
366.6000	514.107
366.8000	511.96
367.0000	510.017
367.2000	506.963
367.4000	504.994
367.6000	501.961
367.8000	499.967
368.0000	498.056
368.2000	494.708
368.4000	492.68
368.6000	489.465
368.8000	487.664
369.0000	485.441
369.2000	482.588
369.4000	480.658
369.6000	477.396
369.8000	475.363
370.0000	473.758
370.2000	470.826
370.4000	468.753
370.6000	465.748
370.8000	463.693
371.0000	461.387
371.2000	457.979
371.4000	456.041
371.6000	453.994
371.8000	450.598
372.0000	448.575
372.2000	445.36
372.4000	443.306
372.6000	441.344
372.8000	438.97
373.0000	436.821
373.2000	433.948
373.4000	431.771
373.6000	429.78
373.8000	426.741
374.0000	424.614
374.2000	421.648
374.4000	419.57
374.6000	417.459
374.8000	414.278
375.0000	412.191
375.2000	409.099
375.4000	406.934
375.6000	404.85
375.8000	401.555
376.0000	399.468
376.2000	396.126
376.4000	394.21
376.6000	392.411
376.8000	389.462
377.0000	387.721
377.2000	384.407
377.4000	382.657
377.6000	380.736
377.8000	378.01
378.0000	376.041
378.2000	372.626
378.4000	370.857
378.6000	368.893
378.8000	365.887
379.0000	363.783
379.2000	360.834
379.4000	358.62
379.6000	356.693
379.8000	353.491
380.0000	351.192
380.2000	347.728
380.4000	345.979
380.6000	343.838
380.8000	340.85
381.0000	338.944
381.2000	336.217
381.4000	334.694
381.6000	332.881
381.8000	330.043
382.0000	328.158
382.2000	326.301
382.4000	323.066
382.6000	321.021
382.8000	318.218
383.0000	316.151
383.2000	313.998
383.4000	311.483
383.6000	309.558
383.8000	307.015
384.0000	305.374
384.2000	303.822
384.4000	301.035
384.6000	299.429
384.8000	297.035
385.0000	295.172
385.2000	293.798
385.4000	291.315
385.6000	289.704
385.8000	287.208
386.0000	285.261
386.2000	283.578
386.4000	281.135
386.6000	279.451
386.8000	276.655
387.0000	275.013
387.2000	273.311
387.4000	270.81
387.6000	269.34
387.8000	267.364
388.0000	265.685
388.2000	264.416
388.4000	262.079
388.6000	260.457
388.8000	258.199
389.0000	256.441
389.2000	254.661
389.4000	252.001
389.6000	250.109
389.8000	247.554
390.0000	245.786
390.2000	244.399
390.4000	242.041
390.6000	240.741
390.8000	238.311
391.0000	237.091
391.2000	235.735
391.4000	233.509
391.6000	232.366
391.8000	230.856
392.0000	228.573
392.2000	227.032
392.4000	224.76
392.6000	223.347
392.8000	222.111
393.0000	220.128
393.2000	218.815
393.4000	216.725
393.6000	215.632
393.8000	214.359
394.0000	212.332
394.2000	210.971
394.4000	208.714
394.6000	207.261
394.8000	205.692
395.0000	203.429
395.2000	202.007
395.4000	199.935
395.6000	198.714
395.8000	197.295
396.0000	195.554
396.2000	194.176
396.4000	192.534
396.6000	191.247
396.8000	189.923
397.0000	187.84
397.2000	186.735
397.4000	185.056
397.6000	183.959
397.8000	182.845
398.0000	180.844
398.2000	179.441
398.4000	177.848
398.6000	176.93
398.8000	175.71
399.0000	173.773
399.2000	172.442
399.4000	170.475
399.6000	169.372
399.8000	168.392
400.0000	166.604
