TITLE	0,154
DATA TYPE	
ORIGIN	JASCO
OWNER	
DATE	13/10/07
TIME	12:10:09
SPECTROMETER/DATA SYSTEM	
RESOLUTION	
DELTAX	0.2
XUNITS	NANOMETERS
YUNITS	INTENSITY
FIRSTX	300.0000
LASTX	400.0000
NPOINTS	501
FIRSTY	999.99902
MAXY	999.99902
MINY	119.93196
XYDATA
300.0000	999.999
300.2000	999.999
300.4000	999.999
300.6000	999.999
300.8000	999.999
301.0000	999.999
301.2000	999.999
301.4000	999.999
301.6000	999.999
301.8000	999.999
302.0000	999.999
302.2000	999.999
302.4000	999.999
302.6000	999.999
302.8000	999.999
303.0000	999.999
303.2000	999.999
303.4000	999.999
303.6000	999.999
303.8000	999.999
304.0000	999.999
304.2000	999.999
304.4000	999.999
304.6000	999.999
304.8000	999.999
305.0000	876.773
305.2000	740.241
305.4000	620.948
305.6000	475.295
305.8000	398.173
306.0000	306.154
306.2000	260.022
306.4000	222.849
306.6000	182.051
306.8000	162.712
307.0000	142.328
307.2000	133.656
307.4000	127.561
307.6000	122.237
307.8000	120.681
308.0000	119.932
308.2000	120.427
308.4000	121.539
308.6000	123.607
308.8000	125.276
309.0000	127.078
309.2000	130.006
309.4000	132.04
309.6000	135.068
309.8000	137.371
310.0000	139.57
310.2000	142.737
310.4000	145.012
310.6000	148.271
310.8000	150.443
311.0000	152.628
311.2000	156.052
311.4000	158.176
311.6000	161.087
311.8000	163.299
312.0000	165.518
312.2000	169.135
312.4000	171.481
312.6000	175.195
312.8000	177.601
313.0000	180.116
313.2000	183.979
313.4000	186.6
313.6000	190.592
313.8000	193.234
314.0000	195.794
314.2000	199.705
314.4000	202.203
314.6000	205.853
314.8000	208.327
315.0000	211.185
315.2000	215.185
315.4000	217.928
315.6000	222.023
315.8000	224.781
316.0000	227.432
316.2000	231.559
316.4000	234.488
316.6000	238.694
316.8000	241.419
317.0000	244.188
317.2000	248.583
317.4000	251.27
317.6000	255.467
317.8000	258.146
318.0000	261.114
318.2000	265.377
318.4000	268.139
318.6000	272.374
318.8000	275.17
319.0000	278.068
319.2000	282.444
319.4000	285.638
319.6000	288.471
319.8000	292.548
320.0000	295.583
320.2000	299.949
320.4000	302.889
320.6000	305.755
320.8000	310.534
321.0000	313.412
321.2000	317.587
321.4000	320.845
321.6000	323.875
321.8000	328.36
322.0000	331.497
322.2000	336.286
322.4000	339.256
322.6000	342.355
322.8000	347.114
323.0000	350.174
323.2000	354.544
323.4000	357.683
323.6000	360.392
323.8000	364.777
324.0000	367.738
324.2000	372.043
324.4000	375.343
324.6000	378.395
324.8000	383.025
325.0000	386.397
325.2000	390.974
325.4000	394.255
325.6000	397.009
325.8000	401.824
326.0000	404.636
326.2000	408.799
326.4000	411.728
326.6000	414.695
326.8000	419.226
327.0000	422.038
327.2000	426.533
327.4000	429.53
327.6000	432.511
327.8000	436.665
328.0000	439.462
328.2000	443.814
328.4000	446.697
328.6000	449.713
328.8000	454.05
329.0000	456.71
329.2000	459.263
329.4000	463.931
329.6000	466.944
329.8000	471.284
330.0000	474.224
330.2000	477.245
330.4000	481.151
330.6000	483.817
330.8000	488.075
331.0000	490.684
331.2000	493.118
331.4000	496.71
331.6000	498.99
331.8000	502.314
332.0000	504.809
332.2000	507.177
332.4000	510.91
332.6000	513.099
332.8000	516.493
333.0000	518.934
333.2000	521.625
333.4000	525.336
333.6000	527.266
333.8000	530.487
334.0000	532.099
334.2000	534.174
334.4000	537.082
334.6000	538.836
334.8000	540.869
335.0000	542.367
335.2000	543.723
335.4000	545.919
335.6000	547.208
335.8000	548.966
336.0000	550.296
336.2000	551.727
336.4000	553.773
336.6000	554.801
336.8000	555.85
337.0000	556.863
337.2000	557.691
337.4000	558.77
337.6000	559.775
337.8000	560.431
338.0000	561.14
338.2000	561.899
338.4000	564.015
338.6000	565.322
338.8000	566.479
339.0000	567.439
339.2000	568.452
339.4000	569.462
339.6000	570.492
339.8000	571.316
340.0000	571.757
340.2000	571.986
340.4000	572.993
340.6000	573.678
340.8000	573.886
341.0000	574.665
341.2000	574.815
341.4000	574.806
341.6000	575.456
341.8000	575.693
342.0000	575.73
342.2000	575.79
342.4000	576.369
342.6000	576.485
342.8000	577.008
343.0000	578.031
343.2000	578.116
343.4000	578.193
343.6000	578.877
343.8000	579.356
344.0000	579.631
344.2000	579.301
344.4000	579.113
344.6000	578.662
344.8000	578.22
345.0000	577.615
345.2000	577.581
345.4000	576.865
345.6000	576.72
345.8000	576.487
346.0000	576.008
346.2000	575.621
346.4000	575.5
346.6000	575.661
346.8000	575.494
347.0000	574.875
347.2000	574.794
347.4000	574.276
347.6000	574.341
347.8000	573.617
348.0000	572.743
348.2000	572.181
348.4000	571.008
348.6000	570.708
348.8000	570.061
349.0000	569
349.2000	568.157
349.4000	567.644
349.6000	567.055
349.8000	566.614
350.0000	565.832
350.2000	564.843
350.4000	563.804
350.6000	562.533
350.8000	560.945
351.0000	559.035
351.2000	557.712
351.4000	557.009
351.6000	555.562
351.8000	554.677
352.0000	553.5
352.2000	552.868
352.4000	551.972
352.6000	550.848
352.8000	549.815
353.0000	547.804
353.2000	546.704
353.4000	545.458
353.6000	543.424
353.8000	542.29
354.0000	540.275
354.2000	539.178
354.4000	538.068
354.6000	536.297
354.8000	535.146
355.0000	533.42
355.2000	532.051
355.4000	530.63
355.6000	528.677
355.8000	527.057
356.0000	524.895
356.2000	523.575
356.4000	522.162
356.6000	520.443
356.8000	518.912
357.0000	517.247
357.2000	515.649
357.4000	514.173
357.6000	512.343
357.8000	511.223
358.0000	509.445
358.2000	507.707
358.4000	506.231
358.6000	503.89
358.8000	502.212
359.0000	500.126
359.2000	498.589
359.4000	497.029
359.6000	494.07
359.8000	492.441
360.0000	490.068
360.2000	488.373
360.4000	486.761
360.6000	484.164
360.8000	482.711
361.0000	480.692
361.2000	478.601
361.4000	477.221
361.6000	474.865
361.8000	473.188
362.0000	471.764
362.2000	469.708
362.4000	468.459
362.6000	466.257
362.8000	464.615
363.0000	463.09
363.2000	460.682
363.4000	458.726
363.6000	455.898
363.8000	454.465
364.0000	452.563
364.2000	450.091
364.4000	448.151
364.6000	445.211
364.8000	443.373
365.0000	442.022
365.2000	439.679
365.4000	437.724
365.6000	434.778
365.8000	433.391
366.0000	431.493
366.2000	429.283
366.4000	427.893
366.6000	425.233
366.8000	423.484
367.0000	422.073
367.2000	419.371
367.4000	417.437
367.6000	414.583
367.8000	412.693
368.0000	410.579
368.2000	407.57
368.4000	405.901
368.6000	402.881
368.8000	401.338
369.0000	399.775
369.2000	397.383
369.4000	395.737
369.6000	393.02
369.8000	391.483
370.0000	389.473
370.2000	387.015
370.4000	385.072
370.6000	382.202
370.8000	380.606
371.0000	378.65
371.2000	375.924
371.4000	374.038
371.6000	372.208
371.8000	369.419
372.0000	367.89
372.2000	365.13
372.4000	363.428
372.6000	361.542
372.8000	358.658
373.0000	356.845
373.2000	354.154
373.4000	351.894
373.6000	349.95
373.8000	346.841
374.0000	345.275
374.2000	342.568
374.4000	340.791
374.6000	339.329
374.8000	336.968
375.0000	335.498
375.2000	333.231
375.4000	331.701
375.6000	330.228
375.8000	328.077
376.0000	326.568
376.2000	323.947
376.4000	322.374
376.6000	320.326
376.8000	317.609
377.0000	315.929
377.2000	312.859
377.4000	310.927
377.6000	308.793
377.8000	305.814
378.0000	304.015
378.2000	301.6
378.4000	300.328
378.6000	299.005
378.8000	296.587
379.0000	295.028
379.2000	292.533
379.4000	291.076
379.6000	289.609
379.8000	287.148
380.0000	285.314
380.2000	282.596
380.4000	280.993
380.6000	279.271
380.8000	276.933
381.0000	275.521
381.2000	273.052
381.4000	271.288
381.6000	269.868
381.8000	267.807
382.0000	266.509
382.2000	265.221
382.4000	262.881
382.6000	261.168
382.8000	258.927
383.0000	257.309
383.2000	255.99
383.4000	253.407
383.6000	251.829
383.8000	249.333
384.0000	248.055
384.2000	246.675
384.4000	244.565
384.6000	243.112
384.8000	241.014
385.0000	239.736
385.2000	238.19
385.4000	235.878
385.6000	234.24
385.8000	231.883
386.0000	230.372
386.2000	228.909
386.4000	226.811
386.6000	225.305
386.8000	223.113
387.0000	221.642
387.2000	220.171
387.4000	218.248
387.6000	217.067
387.8000	214.83
388.0000	213.497
388.2000	212.302
388.4000	210.286
388.6000	209.21
388.8000	207.474
389.0000	206.142
389.2000	204.755
389.4000	202.672
389.6000	201.527
389.8000	199.578
390.0000	198.555
390.2000	197.202
390.4000	195.391
390.6000	194.115
390.8000	192.235
391.0000	191.238
391.2000	190.003
391.4000	188.105
391.6000	186.916
391.8000	185.887
392.0000	183.945
392.2000	182.805
392.4000	181.102
392.6000	179.825
392.8000	178.605
393.0000	176.989
393.2000	175.842
393.4000	174.079
393.6000	172.875
393.8000	171.983
394.0000	170.128
394.2000	169.166
394.4000	167.643
394.6000	166.639
394.8000	165.427
395.0000	163.709
395.2000	162.669
395.4000	160.992
395.6000	159.895
395.8000	158.887
396.0000	157.216
396.2000	155.985
396.4000	154.52
396.6000	153.543
396.8000	152.573
397.0000	151.088
397.2000	150.055
397.4000	148.581
397.6000	147.744
397.8000	146.936
398.0000	145.601
398.2000	144.69
398.4000	143.347
398.6000	142.497
398.8000	141.552
399.0000	140.234
399.2000	139.603
399.4000	137.963
399.6000	136.996
399.8000	136.011
400.0000	134.486
