TITLE	0,082
DATA TYPE	
ORIGIN	JASCO
OWNER	
DATE	13/10/07
TIME	12:01:16
SPECTROMETER/DATA SYSTEM	
RESOLUTION	
DELTAX	0.2
XUNITS	NANOMETERS
YUNITS	INTENSITY
FIRSTX	300.0000
LASTX	400.0000
NPOINTS	501
FIRSTY	999.99902
MAXY	999.99902
MINY	122.00726
XYDATA
300.0000	999.999
300.2000	999.999
300.4000	999.999
300.6000	999.999
300.8000	999.999
301.0000	999.999
301.2000	999.999
301.4000	999.999
301.6000	999.999
301.8000	999.999
302.0000	999.999
302.2000	999.999
302.4000	999.999
302.6000	999.999
302.8000	999.999
303.0000	999.999
303.2000	999.999
303.4000	999.999
303.6000	999.999
303.8000	999.999
304.0000	999.999
304.2000	999.999
304.4000	999.999
304.6000	999.999
304.8000	999.999
305.0000	999.999
305.2000	872.025
305.4000	664.279
305.6000	553.026
305.8000	418.671
306.0000	349.854
306.2000	293.019
306.4000	229.407
306.6000	198.757
306.8000	165.686
307.0000	150.553
307.2000	139.592
307.4000	129.386
307.6000	125.456
307.8000	122.368
308.0000	122.007
308.2000	122.53
308.4000	123.9
308.6000	125.437
308.8000	127.876
309.0000	129.68
309.2000	131.403
309.4000	134.183
309.6000	136.29
309.8000	139.405
310.0000	141.736
310.2000	143.833
310.4000	146.915
310.6000	149.041
310.8000	152.328
311.0000	154.645
311.2000	156.961
311.4000	160.226
311.6000	162.397
311.8000	164.341
312.0000	167.958
312.2000	170.364
312.4000	173.738
312.6000	176.195
312.8000	178.672
313.0000	182.655
313.2000	185.04
313.4000	189.106
313.6000	191.6
313.8000	194.117
314.0000	197.909
314.2000	200.7
314.4000	204.588
314.6000	207.037
314.8000	209.57
315.0000	213.346
315.2000	215.928
315.4000	219.944
315.6000	222.819
315.8000	225.659
316.0000	229.559
316.2000	232.543
316.4000	237.048
316.6000	240.149
316.8000	242.827
317.0000	247.297
317.2000	250.197
317.4000	254.739
317.6000	257.977
317.8000	260.902
318.0000	265.05
318.2000	267.857
318.4000	272.344
318.6000	275.285
318.8000	278.334
319.0000	282.79
319.2000	285.777
319.4000	290.191
319.6000	293.277
319.8000	296.554
320.0000	301.352
320.2000	304.501
320.4000	308.938
320.6000	312.04
320.8000	315.141
321.0000	320.18
321.2000	323.474
321.4000	328.47
321.6000	331.598
321.8000	334.672
322.0000	339.621
322.2000	342.492
322.4000	345.742
322.6000	350.148
322.8000	353.315
323.0000	358.028
323.2000	361.14
323.4000	364.284
323.6000	369.184
323.8000	372.145
324.0000	377.183
324.2000	380.351
324.4000	383.466
324.6000	388.207
324.8000	391.003
325.0000	395.783
325.2000	398.973
325.4000	402.196
325.6000	407.051
325.8000	410.017
326.0000	414.813
326.2000	417.827
326.4000	421.141
326.6000	426.241
326.8000	428.882
327.0000	433.424
327.2000	436.532
327.4000	439.548
327.6000	444.229
327.8000	447.557
328.0000	452.53
328.2000	455.833
328.4000	458.988
328.6000	464.325
328.8000	467.556
329.0000	472.457
329.2000	475.296
329.4000	478.308
329.6000	482.447
329.8000	485.231
330.0000	489.688
330.2000	492.639
330.4000	495.454
330.6000	499.43
330.8000	502.567
331.0000	506.698
331.2000	509.794
331.4000	512.719
331.6000	516.879
331.8000	519.609
332.0000	523.761
332.2000	526.589
332.4000	529.432
332.6000	533.26
332.8000	535.688
333.0000	538.174
333.2000	541.808
333.4000	544.079
333.6000	547.682
333.8000	549.695
334.0000	551.465
334.2000	554.266
334.4000	556.634
334.6000	558.943
334.8000	560.897
335.0000	562.038
335.2000	564.841
335.4000	566.424
335.6000	569.162
335.8000	570.575
336.0000	572.11
336.2000	574.747
336.4000	576.182
336.6000	577.947
336.8000	579.199
337.0000	580.337
337.2000	582.115
337.4000	583.014
337.6000	584.474
337.8000	585.411
338.0000	585.968
338.2000	587.729
338.4000	588.804
338.6000	590.633
338.8000	591.428
339.0000	592.669
339.2000	594.213
339.4000	595.444
339.6000	597.039
339.8000	598.144
340.0000	599.006
340.2000	599.705
340.4000	600.095
340.6000	601.205
340.8000	601.963
341.0000	602.415
341.2000	602.988
341.4000	603.126
341.6000	603.692
341.8000	604.607
342.0000	605.279
342.2000	606.192
342.4000	606.454
342.6000	607.456
342.8000	608.008
343.0000	608.506
343.2000	609.187
343.4000	609.439
343.6000	609.626
343.8000	609.292
344.0000	608.815
344.2000	608.36
344.4000	608.121
344.6000	607.939
344.8000	607.492
345.0000	607.666
345.2000	606.707
345.4000	606.766
345.6000	607.018
345.8000	607.269
346.0000	607.427
346.2000	607.407
346.4000	608.24
346.6000	608.659
346.8000	608.766
347.0000	608.88
347.2000	608.139
347.4000	607.638
347.6000	606.852
347.8000	605.412
348.0000	604.34
348.2000	603.052
348.4000	602.263
348.6000	601.689
348.8000	601.083
349.0000	601.14
349.2000	600.893
349.4000	600.725
349.6000	600.526
349.8000	599.582
350.0000	598.128
350.2000	596.939
350.4000	596.092
350.6000	594.703
350.8000	593.135
351.0000	592.332
351.2000	590.519
351.4000	589.59
351.6000	588.954
351.8000	587.625
352.0000	586.802
352.2000	585.847
352.4000	584.911
352.6000	583.945
352.8000	582.689
353.0000	581.676
353.2000	579.837
353.4000	578.969
353.6000	577.461
353.8000	575.775
354.0000	574.422
354.2000	573.043
354.4000	570.771
354.6000	569.453
354.8000	567.625
355.0000	566.399
355.2000	565.09
355.4000	563.162
355.6000	561.959
355.8000	560.006
356.0000	558.965
356.2000	557.64
356.4000	555.313
356.6000	554.031
356.8000	551.799
357.0000	550.52
357.2000	549.117
357.4000	547.183
357.6000	545.59
357.8000	543.492
358.0000	542.132
358.2000	540.57
358.4000	538.097
358.6000	536.824
358.8000	534.146
359.0000	532.324
359.2000	530.426
359.4000	528.268
359.6000	526.736
359.8000	524.712
360.0000	523.274
360.2000	521.826
360.4000	519.322
360.6000	518.071
360.8000	516.128
361.0000	514.244
361.2000	512.696
361.4000	510.017
361.6000	508.148
361.8000	505.347
362.0000	503.753
362.2000	501.732
362.4000	498.613
362.6000	496.65
362.8000	493.736
363.0000	492.379
363.2000	490.777
363.4000	488.331
363.6000	486.836
363.8000	484.389
364.0000	483.015
364.2000	481.561
364.4000	479.422
364.6000	477.854
364.8000	475.964
365.0000	473.04
365.2000	471.091
365.4000	468.436
365.6000	466.455
365.8000	464.402
366.0000	461.674
366.2000	459.762
366.4000	456.676
366.6000	454.851
366.8000	452.781
367.0000	450.394
367.2000	448.993
367.4000	446.427
367.6000	444.574
367.8000	442.636
368.0000	440.301
368.2000	438.564
368.4000	435.895
368.6000	433.968
368.8000	431.781
369.0000	428.421
369.2000	426.568
369.4000	423.452
369.6000	421.396
369.8000	419.542
370.0000	417.006
370.2000	414.811
370.4000	411.746
370.6000	410.298
370.8000	408.338
371.0000	405.432
371.2000	403.728
371.4000	400.836
371.6000	399.063
371.8000	397.18
372.0000	394.592
372.2000	392.883
372.4000	390.413
372.6000	388.739
372.8000	386.849
373.0000	383.489
373.2000	381.709
373.4000	378.945
373.6000	376.888
373.8000	374.812
374.0000	371.686
374.2000	369.624
374.4000	367.315
374.6000	364.763
374.8000	363.296
375.0000	360.325
375.2000	358.608
375.4000	356.842
375.6000	354.052
375.8000	352.32
376.0000	349.524
376.2000	347.779
376.4000	346.047
376.6000	343.11
376.8000	341.442
377.0000	338.699
377.2000	337.173
377.4000	335.658
377.6000	332.814
377.8000	331.14
378.0000	328.678
378.2000	326.663
378.4000	324.78
378.6000	322.129
378.8000	320.042
379.0000	317.148
379.2000	315.364
379.4000	313.473
379.6000	310.173
379.8000	308.67
380.0000	305.943
380.2000	304.357
380.4000	302.642
380.6000	299.897
380.8000	298.203
381.0000	296.041
381.2000	294.53
381.4000	293.095
381.6000	290.872
381.8000	289.409
382.0000	286.873
382.2000	285.315
382.4000	283.765
382.6000	281.106
382.8000	279.669
383.0000	276.767
383.2000	275.056
383.4000	273.315
383.6000	270.7
383.8000	269.223
384.0000	266.619
384.2000	265.087
384.4000	263.458
384.6000	261.039
384.8000	259.336
385.0000	257.656
385.2000	255.451
385.4000	253.871
385.6000	251.694
385.8000	250.418
386.0000	248.848
386.2000	246.681
386.4000	245.32
386.6000	242.945
386.8000	241.432
387.0000	240.041
387.2000	237.452
387.4000	236.002
387.6000	233.765
387.8000	232.407
388.0000	230.716
388.2000	228.523
388.4000	227.258
388.6000	224.86
388.8000	223.8
389.0000	222.395
389.2000	220.543
389.4000	219.196
389.6000	217.494
389.8000	216.312
390.0000	214.949
390.2000	212.918
390.4000	211.747
390.6000	209.579
390.8000	208.045
391.0000	206.698
391.2000	204.582
391.4000	203.235
391.6000	201.47
391.8000	200.162
392.0000	198.661
392.2000	196.912
392.4000	195.869
392.6000	193.742
392.8000	192.407
393.0000	191.183
393.2000	189.05
393.4000	188.007
393.6000	186.02
393.8000	185.016
394.0000	183.629
394.2000	182.074
394.4000	180.883
394.6000	179.137
394.8000	178.269
395.0000	176.987
395.2000	175.555
395.4000	174.43
395.6000	173.153
395.8000	171.344
396.0000	170.143
396.2000	168.643
396.4000	167.707
396.6000	166.557
396.8000	164.726
397.0000	163.29
397.2000	161.674
397.4000	160.724
397.6000	159.661
397.8000	157.957
398.0000	156.673
398.2000	155.085
398.4000	154.134
398.6000	153.382
398.8000	152.242
399.0000	151.304
399.2000	149.631
399.4000	148.486
399.6000	147.367
399.8000	145.95
400.0000	144.996
