TITLE	0,201
DATA TYPE	
ORIGIN	JASCO
OWNER	
DATE	13/10/07
TIME	12:12:54
SPECTROMETER/DATA SYSTEM	
RESOLUTION	
DELTAX	0.2
XUNITS	NANOMETERS
YUNITS	INTENSITY
FIRSTX	300.0000
LASTX	400.0000
NPOINTS	501
FIRSTY	999.99902
MAXY	999.99902
MINY	122.73601
XYDATA
300.0000	999.999
300.2000	999.999
300.4000	999.999
300.6000	999.999
300.8000	999.999
301.0000	999.999
301.2000	999.999
301.4000	999.999
301.6000	999.999
301.8000	999.999
302.0000	999.999
302.2000	999.999
302.4000	999.999
302.6000	999.999
302.8000	999.999
303.0000	999.999
303.2000	999.999
303.4000	999.999
303.6000	999.999
303.8000	999.999
304.0000	999.999
304.2000	999.999
304.4000	999.999
304.6000	999.999
304.8000	999.999
305.0000	936.02
305.2000	789.304
305.4000	660.638
305.6000	503.48
305.8000	420.973
306.0000	323.363
306.2000	273.923
306.4000	233.796
306.6000	189.523
306.8000	168.82
307.0000	146.774
307.2000	137.452
307.4000	130.805
307.6000	125.148
307.8000	123.339
308.0000	122.736
308.2000	123.209
308.4000	124.398
308.6000	126.668
308.8000	128.423
309.0000	130.269
309.2000	133.023
309.4000	135.205
309.6000	138.226
309.8000	140.246
310.0000	142.204
310.2000	145.377
310.4000	147.479
310.6000	150.424
310.8000	152.759
311.0000	154.847
311.2000	157.973
311.4000	160.347
311.6000	163.718
311.8000	165.997
312.0000	168.326
312.2000	172.005
312.4000	174.357
312.6000	178.008
312.8000	180.742
313.0000	183.301
313.2000	186.972
313.4000	189.242
313.6000	192.872
313.8000	195.111
314.0000	197.519
314.2000	201.014
314.4000	203.364
314.6000	207.072
314.8000	209.596
315.0000	212.341
315.2000	216.162
315.4000	218.898
315.6000	223.049
315.8000	225.801
316.0000	228.561
316.2000	232.743
316.4000	235.65
316.6000	239.69
316.8000	242.618
317.0000	245.26
317.2000	249.659
317.4000	252.47
317.6000	256.538
317.8000	259.635
318.0000	262.447
318.2000	266.485
318.4000	269.247
318.6000	272.271
318.8000	276.674
319.0000	279.216
319.2000	283.739
319.4000	286.437
319.6000	288.8
319.8000	293.163
320.0000	296.128
320.2000	300.506
320.4000	303.303
320.6000	306.237
320.8000	310.755
321.0000	313.479
321.2000	318.233
321.4000	321.046
321.6000	323.979
321.8000	328.475
322.0000	331.079
322.2000	335.343
322.4000	338.202
322.6000	340.986
322.8000	345.545
323.0000	348.494
323.2000	352.885
323.4000	355.384
323.6000	358.623
323.8000	363.097
324.0000	366.267
324.2000	370.506
324.4000	373.163
324.6000	376.211
324.8000	380.345
325.0000	383.434
325.2000	387.73
325.4000	390.481
325.6000	393.271
325.8000	397.836
326.0000	400.784
326.2000	404.891
326.4000	407.935
326.6000	410.77
326.8000	415.053
327.0000	418.092
327.2000	422.091
327.4000	424.911
327.6000	427.574
327.8000	431.876
328.0000	434.6
328.2000	439.085
328.4000	442.46
328.6000	445.2
328.8000	449.81
329.0000	452.975
329.2000	455.859
329.4000	460.26
329.6000	463.5
329.8000	467.11
330.0000	469.704
330.2000	472.082
330.4000	475.646
330.6000	478.036
330.8000	481.949
331.0000	484.725
331.2000	487.054
331.4000	490.815
331.6000	493.038
331.8000	497.14
332.0000	499.389
332.2000	501.391
332.4000	504.718
332.6000	506.416
332.8000	508.917
333.0000	510.853
333.2000	512.943
333.4000	515.796
333.6000	517.635
333.8000	520.827
334.0000	522.773
334.2000	524.953
334.4000	528.349
334.6000	530.227
334.8000	532.879
335.0000	534.322
335.2000	535.657
335.4000	537.644
335.6000	538.606
335.8000	539.881
336.0000	540.278
336.2000	541.051
336.4000	542.681
336.6000	543.605
336.8000	545.32
337.0000	546.509
337.2000	547.792
337.4000	549.351
337.6000	550.608
337.8000	551.893
338.0000	552.304
338.2000	553.319
338.4000	554.132
338.6000	554.464
338.8000	555.097
339.0000	555.695
339.2000	556.103
339.4000	556.869
339.6000	557.276
339.8000	557.836
340.0000	558.456
340.2000	558.993
340.4000	559.576
340.6000	560.071
340.8000	560.484
341.0000	561.526
341.2000	561.785
341.4000	562.873
341.6000	563.325
341.8000	563.667
342.0000	564.41
342.2000	564.693
342.4000	565.1
342.6000	565.238
342.8000	565.069
343.0000	565.258
343.2000	565.265
343.4000	565.348
343.6000	565.351
343.8000	565.243
344.0000	565.509
344.2000	565.778
344.4000	566.14
344.6000	566.337
344.8000	566.281
345.0000	566.071
345.2000	565.595
345.4000	565.059
345.6000	564.582
345.8000	564.069
346.0000	563.054
346.2000	562.244
346.4000	561.311
346.6000	560.886
346.8000	560.465
347.0000	559.801
347.2000	559.267
347.4000	558.411
347.6000	557.958
347.8000	557.126
348.0000	556.909
348.2000	556.668
348.4000	555.825
348.6000	555.238
348.8000	555.129
349.0000	553.872
349.2000	553.111
349.4000	552.375
349.6000	551.407
349.8000	550.196
350.0000	548.801
350.2000	548.177
350.4000	547.126
350.6000	545.654
350.8000	545.371
351.0000	544.287
351.2000	543.742
351.4000	542.922
351.6000	541.568
351.8000	540.46
352.0000	538.99
352.2000	537.93
352.4000	536.625
352.6000	534.457
352.8000	533.174
353.0000	531.142
353.2000	529.957
353.4000	528.555
353.6000	526.608
353.8000	525.814
354.0000	524.445
354.2000	524.045
354.4000	523.007
354.6000	521.424
354.8000	520.609
355.0000	519.253
355.2000	518.136
355.4000	516.663
355.6000	514.588
355.8000	512.852
356.0000	510.313
356.2000	508.801
356.4000	507.089
356.6000	504.912
356.8000	503.557
357.0000	501.331
357.2000	499.948
357.4000	498.523
357.6000	496.599
357.8000	495.655
358.0000	494.074
358.2000	492.92
358.4000	491.681
358.6000	489.138
358.8000	487.99
359.0000	486.045
359.2000	484.694
359.4000	483.056
359.6000	480.591
359.8000	478.822
360.0000	476.067
360.2000	474.105
360.4000	472.386
360.6000	469.608
360.8000	467.889
361.0000	466.284
361.2000	464.131
361.4000	462.878
361.6000	460.952
361.8000	459.863
362.0000	458.73
362.2000	456.94
362.4000	455.316
362.6000	452.986
362.8000	450.997
363.0000	449.414
363.2000	446.302
363.4000	443.988
363.6000	440.647
363.8000	438.286
364.0000	436.353
364.2000	433.513
364.4000	432.291
364.6000	429.926
364.8000	428.762
365.0000	427.561
365.2000	425.317
365.4000	424.004
365.6000	421.709
365.8000	420.232
366.0000	418.522
366.2000	415.727
366.4000	413.576
366.6000	410.714
366.8000	408.713
367.0000	406.989
367.2000	404.263
367.4000	402.433
367.6000	399.86
367.8000	398.138
368.0000	396.783
368.2000	394.271
368.4000	392.949
368.6000	390.653
368.8000	389.232
369.0000	387.733
369.2000	385.636
369.4000	383.735
369.6000	380.655
369.8000	378.792
370.0000	377.094
370.2000	374.12
370.4000	372.129
370.6000	370.225
370.8000	367.112
371.0000	365.469
371.2000	363.167
371.4000	361.727
371.6000	359.888
371.8000	357.425
372.0000	356.209
372.2000	353.577
372.4000	352.087
372.6000	350.176
372.8000	347.373
373.0000	345.388
373.2000	342.567
373.4000	340.588
373.6000	338.658
373.8000	335.712
374.0000	334.02
374.2000	331.377
374.4000	329.751
374.6000	328.205
374.8000	325.545
375.0000	324.311
375.2000	322.017
375.4000	320.587
375.6000	319.09
375.8000	316.53
376.0000	314.945
376.2000	312.285
376.4000	310.625
376.6000	308.929
376.8000	306.085
377.0000	304.579
377.2000	302.135
377.4000	300.422
377.6000	298.591
377.8000	295.798
378.0000	294.08
378.2000	291.698
378.4000	290.007
378.6000	288.375
378.8000	285.964
379.0000	284.371
379.2000	282.217
379.4000	280.754
379.6000	279.18
379.8000	276.71
380.0000	274.962
380.2000	272.614
380.4000	270.902
380.6000	269.398
380.8000	266.852
381.0000	264.923
381.2000	263.626
381.4000	261.389
381.6000	260.085
381.8000	257.648
382.0000	256.227
382.2000	254.759
382.4000	252.391
382.6000	250.923
382.8000	248.72
383.0000	247.201
383.2000	245.711
383.4000	243.622
383.6000	242.132
383.8000	240.025
384.0000	238.717
384.2000	237.208
384.4000	235.353
384.6000	234.14
384.8000	232.296
385.0000	230.771
385.2000	229.328
385.4000	226.989
385.6000	225.672
385.8000	223.49
386.0000	221.996
386.2000	220.602
386.4000	218.351
386.6000	216.842
386.8000	215.032
387.0000	213.841
387.2000	212.827
387.4000	211.151
387.6000	209.813
387.8000	207.95
388.0000	206.911
388.2000	205.792
388.4000	203.883
388.6000	202.512
388.8000	200.413
389.0000	199.033
389.2000	197.69
389.4000	195.469
389.6000	194.059
389.8000	192.058
390.0000	190.817
390.2000	189.626
390.4000	187.889
390.6000	186.647
390.8000	184.831
391.0000	183.772
391.2000	182.951
391.4000	181.186
391.6000	179.915
391.8000	178.794
392.0000	177.243
392.2000	176.048
392.4000	174.218
392.6000	173.113
392.8000	171.753
393.0000	170.036
393.2000	169.02
393.4000	167.328
393.6000	166.223
393.8000	165.267
394.0000	163.79
394.2000	163.063
394.4000	161.554
394.6000	160.547
394.8000	159.446
395.0000	158.022
395.2000	156.887
395.4000	155.172
395.6000	154.107
395.8000	152.995
396.0000	151.553
396.2000	150.692
396.4000	149.109
396.6000	148.088
396.8000	147.135
397.0000	145.824
397.2000	144.846
397.4000	143.643
397.6000	142.679
397.8000	141.442
398.0000	140.009
398.2000	139.086
398.4000	137.544
398.6000	136.5
398.8000	135.699
399.0000	134.2
399.2000	133.231
399.4000	131.969
399.6000	131.085
399.8000	130.241
400.0000	128.88
