TITLE	0,082
DATA TYPE	
ORIGIN	JASCO
OWNER	
DATE	13/10/07
TIME	12:01:33
SPECTROMETER/DATA SYSTEM	
RESOLUTION	
DELTAX	0.2
XUNITS	NANOMETERS
YUNITS	INTENSITY
FIRSTX	300.0000
LASTX	400.0000
NPOINTS	501
FIRSTY	999.99902
MAXY	999.99902
MINY	122.19656
XYDATA
300.0000	999.999
300.2000	999.999
300.4000	999.999
300.6000	999.999
300.8000	999.999
301.0000	999.999
301.2000	999.999
301.4000	999.999
301.6000	999.999
301.8000	999.999
302.0000	999.999
302.2000	999.999
302.4000	999.999
302.6000	999.999
302.8000	999.999
303.0000	999.999
303.2000	999.999
303.4000	999.999
303.6000	999.999
303.8000	999.999
304.0000	999.999
304.2000	999.999
304.4000	999.999
304.6000	999.999
304.8000	999.999
305.0000	999.999
305.2000	824.382
305.4000	688.922
305.6000	572.394
305.8000	434.476
306.0000	362.425
306.2000	278.147
306.4000	237.057
306.6000	204.577
306.8000	170.123
307.0000	153.911
307.2000	137.364
307.4000	130.712
307.6000	126.332
307.8000	122.831
308.0000	122.197
308.2000	122.807
308.4000	123.848
308.6000	125.118
308.8000	127.451
309.0000	129.211
309.2000	131.82
309.4000	133.825
309.6000	135.755
309.8000	138.656
310.0000	140.594
310.2000	143.68
310.4000	145.82
310.6000	148.067
310.8000	151.283
311.0000	153.755
311.2000	157.176
311.4000	159.485
311.6000	161.634
311.8000	165.117
312.0000	167.658
312.2000	171.162
312.4000	173.57
312.6000	176.181
312.8000	179.552
313.0000	181.972
313.2000	185.554
313.4000	188.167
313.6000	190.674
313.8000	194.515
314.0000	196.836
314.2000	200.561
314.4000	203.245
314.6000	205.842
314.8000	210.09
315.0000	212.817
315.2000	215.415
315.4000	219.7
315.6000	222.569
315.8000	226.978
316.0000	229.607
316.2000	232.393
316.4000	236.816
316.6000	239.742
316.8000	243.798
317.0000	246.333
317.2000	249.143
317.4000	253.109
317.6000	255.983
317.8000	260.104
318.0000	262.688
318.2000	265.538
318.4000	270.105
318.6000	273.028
318.8000	277.72
319.0000	280.96
319.2000	284.173
319.4000	288.72
319.6000	292.199
319.8000	296.754
320.0000	299.845
320.2000	302.954
320.4000	307.21
320.6000	310.343
320.8000	314.865
321.0000	318.01
321.2000	321.202
321.4000	325.804
321.6000	328.998
321.8000	333.691
322.0000	337.212
322.2000	340.295
322.4000	344.796
322.6000	347.993
322.8000	352.442
323.0000	355.603
323.2000	358.856
323.4000	363.127
323.6000	366.329
323.8000	371.022
324.0000	374.326
324.2000	377.618
324.4000	382.515
324.6000	385.937
324.8000	389.191
325.0000	394.035
325.2000	397.321
325.4000	402.256
325.6000	404.961
325.8000	408.174
326.0000	412.633
326.2000	415.821
326.4000	420.442
326.6000	423.407
326.8000	426.721
327.0000	431.784
327.2000	434.775
327.4000	439.631
327.6000	443.09
327.8000	446.232
328.0000	450.717
328.2000	453.78
328.4000	458.59
328.6000	461.48
328.8000	464.474
329.0000	469.206
329.2000	472.141
329.4000	476.438
329.6000	479.432
329.8000	482.925
330.0000	487.417
330.2000	490.435
330.4000	494.748
330.6000	497.717
330.8000	500.712
331.0000	505.298
331.2000	508.59
331.4000	512.841
331.6000	515.603
331.8000	517.913
332.0000	522.125
332.2000	524.521
332.4000	528.292
332.6000	530.598
332.8000	532.752
333.0000	536.022
333.2000	538.117
333.4000	541.684
333.6000	544.04
333.8000	546.068
334.0000	549.342
334.2000	551.49
334.4000	554.761
334.6000	557.022
334.8000	558.967
335.0000	561.623
335.2000	563.176
335.4000	564.65
335.6000	566.593
335.8000	567.907
336.0000	570.129
336.2000	570.793
336.4000	571.996
336.6000	573.867
336.8000	575.21
337.0000	577.161
337.2000	578.669
337.4000	579.815
337.6000	581.378
337.8000	582.982
338.0000	585.045
338.2000	586.238
338.4000	587.282
338.6000	588.278
338.8000	589.244
339.0000	590.205
339.2000	590.986
339.4000	591.431
339.6000	592.261
339.8000	592.412
340.0000	593.44
340.2000	594.574
340.4000	595.516
340.6000	596.786
340.8000	597.89
341.0000	599.329
341.2000	600.161
341.4000	600.778
341.6000	602.256
341.8000	602.808
342.0000	603.418
342.2000	603.716
342.4000	603.855
342.6000	604.293
342.8000	604.835
343.0000	604.983
343.2000	605.121
343.4000	605.293
343.6000	605.758
343.8000	605.748
344.0000	606.133
344.2000	606.567
344.4000	606.584
344.6000	606.736
344.8000	607.532
345.0000	607.989
345.2000	608.146
345.4000	608.18
345.6000	607.929
345.8000	607.685
346.0000	606.858
346.2000	606.665
346.4000	606.316
346.6000	605.373
346.8000	604.999
347.0000	604.509
347.2000	604.086
347.4000	604.167
347.6000	603.708
347.8000	603.548
348.0000	602.948
348.2000	602.273
348.4000	601.962
348.6000	601.003
348.8000	600.437
349.0000	599.674
349.2000	598.863
349.4000	598.601
349.6000	597.334
349.8000	596.4
350.0000	595.862
350.2000	594.767
350.4000	593.911
350.6000	592.938
350.8000	591.752
351.0000	590.743
351.2000	589.087
351.4000	588.13
351.6000	586.669
351.8000	585.68
352.0000	584.859
352.2000	583.128
352.4000	582.653
352.6000	581.538
352.8000	580.891
353.0000	580.011
353.2000	578.686
353.4000	577.601
353.6000	575.873
353.8000	574.552
354.0000	573.267
354.2000	571.243
354.4000	569.808
354.6000	567.713
354.8000	566.287
355.0000	564.849
355.2000	562.677
355.4000	561.514
355.6000	559.453
355.8000	558.368
356.0000	557.144
356.2000	555.059
356.4000	553.813
356.6000	552.8
356.8000	550.472
357.0000	548.937
357.2000	546.811
357.4000	545.543
357.6000	544.233
357.8000	542.018
358.0000	540.413
358.2000	537.855
358.4000	536.525
358.6000	535.1
358.8000	532.987
359.0000	531.466
359.2000	529.293
359.4000	527.757
359.6000	526.466
359.8000	524.354
360.0000	522.807
360.2000	520.698
360.4000	518.992
360.6000	517.072
360.8000	514.153
361.0000	512.095
361.2000	509.36
361.4000	507.731
361.6000	505.896
361.8000	503.347
362.0000	502.122
362.2000	499.771
362.4000	498.193
362.6000	497.028
362.8000	494.863
363.0000	493.205
363.2000	490.251
363.4000	488.356
363.6000	486.316
363.8000	483.455
364.0000	481.556
364.2000	478.822
364.4000	476.972
364.6000	475.493
364.8000	473.053
365.0000	471.433
365.2000	469.225
365.4000	467.221
365.6000	465.485
365.8000	462.784
366.0000	461.152
366.2000	458.227
366.4000	456.314
366.6000	454.199
366.8000	451.154
367.0000	448.999
367.2000	446.915
367.4000	443.961
367.6000	442.002
367.8000	438.965
368.0000	437.215
368.2000	435.325
368.4000	433.06
368.6000	431.183
368.8000	428.807
369.0000	427.293
369.2000	425.353
369.4000	423.059
369.6000	421.466
369.8000	418.569
370.0000	416.57
370.2000	414.445
370.4000	411.551
370.6000	409.323
370.8000	406.149
371.0000	403.84
371.2000	401.889
371.4000	399.296
371.6000	397.775
371.8000	395.41
372.0000	393.759
372.2000	392.013
372.4000	389.677
372.6000	388.07
372.8000	385.578
373.0000	383.284
373.2000	381.116
373.4000	378.236
373.6000	376.293
373.8000	372.889
374.0000	371.034
374.2000	369.031
374.4000	366.225
374.6000	364.494
374.8000	361.966
375.0000	360.11
375.2000	358.509
375.4000	355.993
375.6000	354.91
375.8000	352.098
376.0000	350.301
376.2000	348.301
376.4000	345.258
376.6000	343.461
376.8000	340.347
377.0000	338.262
377.2000	336.316
377.4000	332.898
377.6000	331.023
377.8000	329.068
378.0000	326.615
378.2000	324.643
378.4000	322.058
378.6000	320.679
378.8000	319.217
379.0000	316.358
379.2000	314.636
379.4000	312.15
379.6000	310.356
379.8000	308.799
380.0000	306.064
380.2000	304.318
380.4000	301.282
380.6000	299.789
380.8000	298.039
381.0000	295.503
381.2000	293.946
381.4000	291.348
381.6000	289.657
381.8000	287.666
382.0000	285.458
382.2000	283.679
382.4000	281.274
382.6000	279.558
382.8000	277.876
383.0000	275.347
383.2000	273.585
383.4000	271.012
383.6000	269.668
383.8000	268.38
384.0000	266.267
384.2000	264.792
384.4000	262.358
384.6000	261.021
384.8000	259.609
385.0000	257.427
385.2000	256.137
385.4000	253.408
385.6000	252.067
385.8000	250.433
386.0000	248.14
386.2000	246.905
386.4000	244.636
386.6000	243.053
386.8000	241.383
387.0000	239.101
387.2000	237.772
387.4000	236.136
387.6000	233.817
387.8000	232.323
388.0000	229.922
388.2000	228.555
388.4000	227.407
388.6000	225.217
388.8000	223.789
389.0000	221.553
389.2000	220.265
389.4000	218.941
389.6000	217.282
389.8000	215.955
390.0000	213.594
390.2000	212.272
390.4000	211.008
390.6000	208.961
390.8000	207.692
391.0000	205.592
391.2000	204.054
391.4000	202.823
391.6000	201.041
391.8000	199.82
392.0000	197.647
392.2000	196.559
392.4000	195.526
392.6000	193.523
392.8000	192.476
393.0000	190.736
393.2000	189.467
393.4000	188.301
393.6000	186.711
393.8000	185.594
394.0000	183.489
394.2000	182.659
394.4000	181.532
394.6000	179.678
394.8000	178.443
395.0000	176.6
395.2000	175.457
395.4000	174.089
395.6000	172.224
395.8000	171.074
396.0000	169.361
396.2000	168.076
396.4000	167.006
396.6000	165.198
396.8000	164.077
397.0000	162.593
397.2000	161.667
397.4000	160.662
397.6000	158.861
397.8000	157.782
398.0000	157.118
398.2000	155.636
398.4000	154.746
398.6000	153.235
398.8000	152.241
399.0000	151.194
399.2000	149.777
399.4000	148.809
399.6000	147.037
399.8000	145.963
400.0000	145.169
