TITLE	0,024
DATA TYPE	
ORIGIN	JASCO
OWNER	
DATE	13/10/07
TIME	12:48:05
SPECTROMETER/DATA SYSTEM	
RESOLUTION	
DELTAX	0.2
XUNITS	NANOMETERS
YUNITS	INTENSITY
FIRSTX	300.0000
LASTX	400.0000
NPOINTS	501
FIRSTY	999.99902
MAXY	999.99902
MINY	107.16211
XYDATA
300.0000	999.999
300.2000	999.999
300.4000	999.999
300.6000	999.999
300.8000	999.999
301.0000	999.999
301.2000	999.999
301.4000	999.999
301.6000	999.999
301.8000	999.999
302.0000	999.999
302.2000	999.999
302.4000	999.999
302.6000	999.999
302.8000	999.999
303.0000	999.999
303.2000	999.999
303.4000	999.999
303.6000	999.999
303.8000	999.999
304.0000	999.999
304.2000	999.999
304.4000	999.999
304.6000	999.999
304.8000	998.679
305.0000	768.997
305.2000	644.063
305.4000	536.385
305.6000	405.862
305.8000	338.291
306.0000	258.991
306.2000	219.819
306.4000	188.696
306.6000	155.09
306.8000	139.63
307.0000	123.136
307.2000	116.402
307.4000	111.694
307.6000	108.152
307.8000	107.162
308.0000	107.185
308.2000	108.155
308.4000	109.361
308.6000	111.551
308.8000	113.32
309.0000	115.047
309.2000	117.618
309.4000	119.648
309.6000	122.466
309.8000	124.443
310.0000	126.408
310.2000	129.566
310.4000	131.64
310.6000	135.093
310.8000	137.634
311.0000	139.984
311.2000	143.522
311.4000	146.126
311.6000	149.928
311.8000	152.376
312.0000	154.894
312.2000	158.681
312.4000	161.003
312.6000	164.871
312.8000	167.485
313.0000	169.898
313.2000	173.666
313.4000	176.533
313.6000	180.465
313.8000	183.118
314.0000	185.797
314.2000	189.768
314.4000	192.676
314.6000	197.007
314.8000	199.869
315.0000	202.645
315.2000	206.924
315.4000	209.752
315.6000	214.209
315.8000	216.947
316.0000	219.679
316.2000	223.903
316.4000	226.827
316.6000	231.216
316.8000	234.205
317.0000	237.171
317.2000	242.187
317.4000	245.281
317.6000	250.18
317.8000	253.654
318.0000	256.76
318.2000	261.639
318.4000	264.959
318.6000	268.302
318.8000	273.138
319.0000	276.23
319.2000	281.101
319.4000	284.257
319.6000	287.396
319.8000	292.279
320.0000	295.571
320.2000	300.526
320.4000	303.849
320.6000	307.118
320.8000	312.228
321.0000	315.744
321.2000	321.299
321.4000	324.912
321.6000	328.529
321.8000	333.894
322.0000	337.58
322.2000	342.946
322.4000	346.447
322.6000	349.897
322.8000	355.237
323.0000	358.594
323.2000	363.564
323.4000	367.221
323.6000	370.697
323.8000	376.235
324.0000	379.648
324.2000	385.22
324.4000	388.343
324.6000	391.794
324.8000	396.887
325.0000	400.38
325.2000	405.18
325.4000	408.37
325.6000	411.696
325.8000	416.444
326.0000	419.691
326.2000	425.147
326.4000	428.75
326.6000	432.298
326.8000	438.085
327.0000	441.83
327.2000	447.362
327.4000	451.117
327.6000	455.145
327.8000	460.705
328.0000	464.351
328.2000	470.217
328.4000	473.469
328.6000	477.085
328.8000	482.742
329.0000	486.311
329.2000	489.667
329.4000	494.903
329.6000	498.211
329.8000	503.089
330.0000	506.54
330.2000	509.635
330.4000	514.295
330.6000	517.357
330.8000	522.295
331.0000	525.413
331.2000	529.008
331.4000	533.789
331.6000	536.916
331.8000	541.573
332.0000	544.744
332.2000	547.707
332.4000	551.982
332.6000	554.807
332.8000	558.608
333.0000	560.898
333.2000	563.553
333.4000	567.676
333.6000	570.315
333.8000	574.049
334.0000	575.92
334.2000	578.12
334.4000	581.361
334.6000	583.525
334.8000	586.926
335.0000	588.806
335.2000	591.162
335.4000	593.78
335.6000	596.09
335.8000	599.58
336.0000	601.538
336.2000	603.312
336.4000	606.173
336.6000	608.18
336.8000	610.362
337.0000	612.146
337.2000	613.143
337.4000	615.177
337.6000	616.225
337.8000	618.228
338.0000	619.113
338.2000	619.857
338.4000	621.603
338.6000	622.446
338.8000	624.871
339.0000	625.827
339.2000	627.122
339.4000	628.611
339.6000	629.691
339.8000	630.906
340.0000	632.475
340.2000	633.523
340.4000	634.671
340.6000	635.874
340.8000	636.823
341.0000	638.718
341.2000	640.149
341.4000	641.627
341.6000	642.837
341.8000	643.694
342.0000	644.797
342.2000	645.215
342.4000	646.429
342.6000	646.768
342.8000	647.283
343.0000	648.231
343.2000	648.659
343.4000	649.676
343.6000	650.284
343.8000	651.066
344.0000	651.761
344.2000	652.052
344.4000	652.658
344.6000	652.764
344.8000	652.78
345.0000	652.931
345.2000	652.848
345.4000	652.834
345.6000	653.058
345.8000	652.993
346.0000	652.366
346.2000	652.522
346.4000	652.915
346.6000	652.725
346.8000	652.662
347.0000	652.263
347.2000	652.002
347.4000	651.654
347.6000	651.677
347.8000	651.391
348.0000	650.995
348.2000	650.115
348.4000	649.22
348.6000	648.971
348.8000	648.33
349.0000	647.543
349.2000	646.984
349.4000	646.343
349.6000	645.707
349.8000	645.185
350.0000	645.07
350.2000	644.631
350.4000	643.837
350.6000	642.998
350.8000	642.268
351.0000	641.316
351.2000	640.22
351.4000	639.06
351.6000	637.107
351.8000	636.07
352.0000	634.31
352.2000	633.149
352.4000	632.244
352.6000	630.521
352.8000	629.692
353.0000	628.826
353.2000	627.985
353.4000	627.23
353.6000	626.145
353.8000	625.481
354.0000	623.568
354.2000	622.23
354.4000	620.791
354.6000	618.476
354.8000	616.627
355.0000	614.404
355.2000	612.78
355.4000	610.848
355.6000	608.569
355.8000	607.244
356.0000	605.689
356.2000	604.478
356.4000	603.432
356.6000	601.388
356.8000	600.598
357.0000	599.155
357.2000	598.101
357.4000	596.541
357.6000	594.532
357.8000	593.133
358.0000	590.956
358.2000	589.425
358.4000	587.51
358.6000	584.574
358.8000	582.589
359.0000	580.123
359.2000	578.286
359.4000	576.746
359.6000	574.728
359.8000	573.035
360.0000	570.909
360.2000	569.613
360.4000	568.012
360.6000	565.951
360.8000	563.96
361.0000	562.544
361.2000	559.63
361.4000	557.975
361.6000	554.906
361.8000	553.146
362.0000	551.325
362.2000	548.508
362.4000	546.44
362.6000	543.869
362.8000	542.289
363.0000	540.352
363.2000	538.123
363.4000	536.192
363.6000	533.464
363.8000	531.728
364.0000	529.932
364.2000	527.349
364.4000	525.559
364.6000	522.887
364.8000	520.582
365.0000	518.448
365.2000	515.505
365.4000	513.162
365.6000	510.37
365.8000	508.316
366.0000	506.138
366.2000	502.88
366.4000	500.977
366.6000	498.479
366.8000	496.542
367.0000	494.783
367.2000	492.054
367.4000	490.445
367.6000	487.493
367.8000	485.217
368.0000	483.656
368.2000	480.418
368.4000	478.56
368.6000	475.547
368.8000	473.827
369.0000	471.661
369.2000	468.739
369.4000	466.972
369.6000	463.874
369.8000	461.797
370.0000	459.753
370.2000	456.649
370.4000	454.738
370.6000	452.768
370.8000	449.73
371.0000	447.753
371.2000	444.828
371.4000	442.832
371.6000	440.964
371.8000	438.073
372.0000	436.054
372.2000	433.246
372.4000	430.88
372.6000	428.641
372.8000	425.299
373.0000	423.338
373.2000	420.149
373.4000	418.187
373.6000	416.056
373.8000	412.766
374.0000	410.592
374.2000	407.536
374.4000	405.817
374.6000	403.573
374.8000	400.627
375.0000	398.495
375.2000	395.808
375.4000	393.761
375.6000	391.701
375.8000	388.898
376.0000	386.825
376.2000	384.002
376.4000	381.936
376.6000	379.962
376.8000	376.998
377.0000	374.969
377.2000	372.013
377.4000	369.792
377.6000	367.855
377.8000	364.96
378.0000	362.984
378.2000	359.881
378.4000	358.114
378.6000	356.38
378.8000	353.451
379.0000	351.878
379.2000	349.107
379.4000	347.04
379.6000	345.069
379.8000	342.739
380.0000	340.897
380.2000	337.902
380.4000	335.908
380.6000	333.846
380.8000	330.786
381.0000	328.79
381.2000	326.825
381.4000	323.862
381.6000	321.958
381.8000	319.516
382.0000	317.706
382.2000	315.833
382.4000	313.017
382.6000	311.464
382.8000	308.533
383.0000	306.59
383.2000	304.821
383.4000	301.909
383.6000	300.118
383.8000	297.517
384.0000	295.944
384.2000	294.352
384.4000	292.01
384.6000	290.587
384.8000	288.083
385.0000	286.313
385.2000	284.504
385.4000	281.884
385.6000	280.096
385.8000	277.625
386.0000	276.051
386.2000	274.489
386.4000	272.055
386.6000	270.601
386.8000	268.306
387.0000	266.766
387.2000	265.354
387.4000	262.817
387.6000	261.089
387.8000	258.712
388.0000	257.093
388.2000	255.326
388.4000	252.762
388.6000	251.246
388.8000	248.672
389.0000	247.072
389.2000	245.777
389.4000	243.225
389.6000	241.696
389.8000	239.403
390.0000	237.804
390.2000	236.533
390.4000	234.2
390.6000	232.734
390.8000	230.65
391.0000	229.305
391.2000	227.795
391.4000	225.713
391.6000	224.251
391.8000	222.843
392.0000	220.74
392.2000	219.611
392.4000	217.394
392.6000	215.903
392.8000	214.956
393.0000	212.728
393.2000	211.412
393.4000	209.643
393.6000	208.423
393.8000	207.038
394.0000	205.295
394.2000	204.246
394.4000	202.047
394.6000	200.748
394.8000	199.394
395.0000	197.389
395.2000	196.048
395.4000	193.938
395.6000	192.645
395.8000	191.053
396.0000	189.119
396.2000	187.85
396.4000	186.037
396.6000	184.982
396.8000	183.86
397.0000	181.843
397.2000	180.594
397.4000	178.957
397.6000	177.485
397.8000	176.344
398.0000	174.564
398.2000	173.356
398.4000	171.421
398.6000	170.213
398.8000	169.118
399.0000	167.389
399.2000	166.491
399.4000	164.943
399.6000	163.937
399.8000	162.853
400.0000	161.285
