TITLE	0,024
DATA TYPE	
ORIGIN	JASCO
OWNER	
DATE	13/10/07
TIME	12:48:05
SPECTROMETER/DATA SYSTEM	
RESOLUTION	
DELTAX	0.2
XUNITS	NANOMETERS
YUNITS	INTENSITY
FIRSTX	300.0000
LASTX	400.0000
NPOINTS	501
FIRSTY	999.99902
MAXY	999.99902
MINY	107.85746
XYDATA
300.0000	999.999
300.2000	999.999
300.4000	999.999
300.6000	999.999
300.8000	999.999
301.0000	999.999
301.2000	999.999
301.4000	999.999
301.6000	999.999
301.8000	999.999
302.0000	999.999
302.2000	999.999
302.4000	999.999
302.6000	999.999
302.8000	999.999
303.0000	999.999
303.2000	999.999
303.4000	999.999
303.6000	999.999
303.8000	999.999
304.0000	999.999
304.2000	999.999
304.4000	999.999
304.6000	999.999
304.8000	983.162
305.0000	815.813
305.2000	665.835
305.4000	538.325
305.6000	435.098
305.8000	341.131
306.0000	278.103
306.2000	228.783
306.4000	191.004
306.6000	163.547
306.8000	140.837
307.0000	127.419
307.2000	118.294
307.4000	112.519
307.6000	109.424
307.8000	107.875
308.0000	107.857
308.2000	108.709
308.4000	110.097
308.6000	111.891
308.8000	114.315
309.0000	116.19
309.2000	118.692
309.4000	121.011
309.6000	123.329
309.8000	126.002
310.0000	128.061
310.2000	130.938
310.4000	133.386
310.6000	136.091
310.8000	139.134
311.0000	141.429
311.2000	144.491
311.4000	147.366
311.6000	150.221
311.8000	152.983
312.0000	155.918
312.2000	159.242
312.4000	161.989
312.6000	164.936
312.8000	168.01
313.0000	170.904
313.2000	174.379
313.4000	177.623
313.6000	180.581
313.8000	183.658
314.0000	186.965
314.2000	190.171
314.4000	193.844
314.6000	197.177
314.8000	200.457
315.0000	203.543
315.2000	206.802
315.4000	210.662
315.6000	214.067
315.8000	217.377
316.0000	220.724
316.2000	224.164
316.4000	228.242
316.6000	231.809
316.8000	235.408
317.0000	238.843
317.2000	242.661
317.4000	246.821
317.6000	250.583
317.8000	254.407
318.0000	258.053
318.2000	261.89
318.4000	266.324
318.6000	269.727
318.8000	273.925
319.0000	277.623
319.2000	281.524
319.4000	285.972
319.6000	289.309
319.8000	293.556
320.0000	297.512
320.2000	301.405
320.4000	305.974
320.6000	309.304
320.8000	313.857
321.0000	317.811
321.2000	321.91
321.4000	326.652
321.6000	329.999
321.8000	334.624
322.0000	338.611
322.2000	342.756
322.4000	346.784
322.6000	350.912
322.8000	355.658
323.0000	359.668
323.2000	363.684
323.4000	367.853
323.6000	371.952
323.8000	376.897
324.0000	380.997
324.2000	385.254
324.4000	389.159
324.6000	393.393
324.8000	397.572
325.0000	402.256
325.2000	406.281
325.4000	410.305
325.6000	414.445
325.8000	418.345
326.0000	422.973
326.2000	427.17
326.4000	431.162
326.6000	435.244
326.8000	439.663
327.0000	444.268
327.2000	448.303
327.4000	452.48
327.6000	456.693
327.8000	460.852
328.0000	465.636
328.2000	470.091
328.4000	474.173
328.6000	478.404
328.8000	482.851
329.0000	487.566
329.2000	490.948
329.4000	495.794
329.6000	499.664
329.8000	503.384
330.0000	507.795
330.2000	510.832
330.4000	514.947
330.6000	518.642
330.8000	522.288
331.0000	526.431
331.2000	529.7
331.4000	534.245
331.6000	537.919
331.8000	541.44
332.0000	545.815
332.2000	548.914
332.4000	552.905
332.6000	556.384
332.8000	559.628
333.0000	562.688
333.2000	565.677
333.4000	569.129
333.6000	572.116
333.8000	574.899
334.0000	577.355
334.2000	579.928
334.4000	582.931
334.6000	585.389
334.8000	587.885
335.0000	590.406
335.2000	592.866
335.4000	595.206
335.6000	597.92
335.8000	600.284
336.0000	602.225
336.2000	604.307
336.4000	606.502
336.6000	608.59
336.8000	610.157
337.0000	612.032
337.2000	613.382
337.4000	614.868
337.6000	616.643
337.8000	618.191
338.0000	619.586
338.2000	620.999
338.4000	622.709
338.6000	624.393
338.8000	626.101
339.0000	627.754
339.2000	629.108
339.4000	630.368
339.6000	631.813
339.8000	632.819
340.0000	634.069
340.2000	635.168
340.4000	636.109
340.6000	637.492
340.8000	638.602
341.0000	640.32
341.2000	641.622
341.4000	642.638
341.6000	643.98
341.8000	644.833
342.0000	645.886
342.2000	646.717
342.4000	647.422
342.6000	647.688
342.8000	648.197
343.0000	648.651
343.2000	649.04
343.4000	649.541
343.6000	650.03
343.8000	650.581
344.0000	651.179
344.2000	651.44
344.4000	651.749
344.6000	652.148
344.8000	652.696
345.0000	653.088
345.2000	653.303
345.4000	653.431
345.6000	653.43
345.8000	653.648
346.0000	653.508
346.2000	653.57
346.4000	653.407
346.6000	653.229
346.8000	652.988
347.0000	652.669
347.2000	652.185
347.4000	651.869
347.6000	651.507
347.8000	651.445
348.0000	651.362
348.2000	650.631
348.4000	650.254
348.6000	649.884
348.8000	649.405
349.0000	648.967
349.2000	648.273
349.4000	647.672
349.6000	646.899
349.8000	646.074
350.0000	645.722
350.2000	644.865
350.4000	644.08
350.6000	643.309
350.8000	642.386
351.0000	641.614
351.2000	640.447
351.4000	639.703
351.6000	638.558
351.8000	637.573
352.0000	636.398
352.2000	634.943
352.4000	634
352.6000	632.478
352.8000	631.275
353.0000	630.016
353.2000	628.342
353.4000	627.148
353.6000	626.033
353.8000	624.842
354.0000	623.43
354.2000	622.037
354.4000	620.623
354.6000	618.876
354.8000	617.208
355.0000	615.745
355.2000	614.064
355.4000	612.342
355.6000	610.463
355.8000	608.976
356.0000	607.471
356.2000	605.756
356.4000	604.324
356.6000	602.61
356.8000	600.974
357.0000	599.484
357.2000	597.795
357.4000	595.921
357.6000	594.25
357.8000	592.622
358.0000	590.828
358.2000	589.045
358.4000	587.285
358.6000	585.067
358.8000	582.984
359.0000	581.305
359.2000	579.661
359.4000	577.628
359.6000	575.729
359.8000	573.64
360.0000	571.818
360.2000	570.103
360.4000	568.112
360.6000	566.23
360.8000	563.457
361.0000	561.733
361.2000	559.508
361.4000	557.697
361.6000	555.514
361.8000	553.382
362.0000	551.712
362.2000	549.314
362.4000	547.392
362.6000	545.5
362.8000	543.34
363.0000	541.558
363.2000	539.317
363.4000	537.12
363.6000	534.798
363.8000	532.652
364.0000	530.383
364.2000	527.683
364.4000	525.554
364.6000	523.095
364.8000	520.61
365.0000	518.23
365.2000	515.664
365.4000	513.413
365.6000	511.169
365.8000	509.042
366.0000	506.839
366.2000	504.757
366.4000	502.235
366.6000	500.135
366.8000	498.225
367.0000	495.913
367.2000	493.728
367.4000	490.97
367.6000	488.539
367.8000	485.909
368.0000	483.763
368.2000	481.19
368.4000	478.169
368.6000	475.722
368.8000	473.573
369.0000	471.354
369.2000	469.098
369.4000	466.69
369.6000	464.502
369.8000	462.28
370.0000	460.158
370.2000	457.82
370.4000	455.176
370.6000	453.135
370.8000	450.464
371.0000	447.974
371.2000	445.519
371.4000	442.327
371.6000	440.256
371.8000	437.547
372.0000	435.016
372.2000	432.775
372.4000	430.024
372.6000	427.953
372.8000	425.251
373.0000	423.2
373.2000	420.958
373.4000	418.291
373.6000	416.383
373.8000	413.705
374.0000	411.255
374.2000	408.899
374.4000	406.67
374.6000	404.342
374.8000	401.687
375.0000	399.088
375.2000	396.718
375.4000	394.198
375.6000	391.944
375.8000	389.212
376.0000	386.904
376.2000	384.585
376.4000	382.161
376.6000	379.881
376.8000	377.719
377.0000	375.281
377.2000	372.928
377.4000	370.534
377.6000	368.443
377.8000	366.252
378.0000	363.633
378.2000	361.363
378.4000	359.114
378.6000	356.985
378.8000	354.717
379.0000	352.31
379.2000	349.913
379.4000	347.528
379.6000	345.29
379.8000	343.223
380.0000	340.577
380.2000	338.205
380.4000	336.002
380.6000	333.79
380.8000	331.536
381.0000	328.954
381.2000	327.086
381.4000	324.563
381.6000	322.345
381.8000	320.352
382.0000	317.824
382.2000	315.895
382.4000	313.373
382.6000	311.445
382.8000	309.174
383.0000	306.767
383.2000	304.959
383.4000	302.558
383.6000	300.469
383.8000	298.514
384.0000	296.171
384.2000	294.38
384.4000	292.139
384.6000	290.228
384.8000	288.192
385.0000	286.184
385.2000	284.056
385.4000	281.84
385.6000	279.867
385.8000	277.857
386.0000	275.912
386.2000	273.948
386.4000	271.726
386.6000	269.868
386.8000	268.145
387.0000	266.215
387.2000	264.45
387.4000	262.577
387.6000	260.425
387.8000	258.535
388.0000	256.674
388.2000	254.83
388.4000	253.002
388.6000	250.855
388.8000	248.937
389.0000	247.019
389.2000	245.259
389.4000	243.361
389.6000	241.43
389.8000	239.665
390.0000	237.82
390.2000	236.209
390.4000	234.438
390.6000	232.589
390.8000	231.027
391.0000	229.479
391.2000	227.881
391.4000	226.298
391.6000	224.433
391.8000	222.914
392.0000	221.227
392.2000	219.657
392.4000	217.944
392.6000	215.884
392.8000	214.616
393.0000	212.709
393.2000	211.148
393.4000	209.654
393.6000	207.847
393.8000	206.449
394.0000	204.739
394.2000	203.349
394.4000	201.775
394.6000	199.964
394.8000	198.561
395.0000	196.819
395.2000	195.361
395.4000	193.772
395.6000	192.335
395.8000	190.741
396.0000	189.072
396.2000	187.615
396.4000	186.307
396.6000	185.084
396.8000	183.648
397.0000	182.007
397.2000	180.671
397.4000	179.408
397.6000	177.939
397.8000	176.54
398.0000	175.22
398.2000	173.524
398.4000	172.138
398.6000	170.709
398.8000	169.284
399.0000	167.915
399.2000	166.449
399.4000	165.208
399.6000	163.904
399.8000	162.726
400.0000	161.51
