TITLE	0,012
DATA TYPE	
ORIGIN	JASCO
OWNER	
DATE	13/10/07
TIME	12:44:57
SPECTROMETER/DATA SYSTEM	
RESOLUTION	
DELTAX	0.2
XUNITS	NANOMETERS
YUNITS	INTENSITY
FIRSTX	300.0000
LASTX	400.0000
NPOINTS	501
FIRSTY	999.99902
MAXY	999.99902
MINY	104.50091
XYDATA
300.0000	999.999
300.2000	999.999
300.4000	999.999
300.6000	999.999
300.8000	999.999
301.0000	999.999
301.2000	999.999
301.4000	999.999
301.6000	999.999
301.8000	999.999
302.0000	999.999
302.2000	999.999
302.4000	999.999
302.6000	999.999
302.8000	999.999
303.0000	999.999
303.2000	999.999
303.4000	999.999
303.6000	999.999
303.8000	999.999
304.0000	999.999
304.2000	999.999
304.4000	999.999
304.6000	999.999
304.8000	924.598
305.0000	781.229
305.2000	600.169
305.4000	502.815
305.6000	419.006
305.8000	320.242
306.0000	268.521
306.2000	209.078
306.4000	180.463
306.6000	157.605
306.8000	134.141
307.0000	123.186
307.2000	112.478
307.4000	108.288
307.6000	105.906
307.8000	104.501
308.0000	104.528
308.2000	105.844
308.4000	107.255
308.6000	108.779
308.8000	111.498
309.0000	113.413
309.2000	116.285
309.4000	118.473
309.6000	120.452
309.8000	123.879
310.0000	126.025
310.2000	129.113
310.4000	131.359
310.6000	133.331
310.8000	136.873
311.0000	139.129
311.2000	142.958
311.4000	145.117
311.6000	147.348
311.8000	151.141
312.0000	153.528
312.2000	157.502
312.4000	160.072
312.6000	162.487
312.8000	166.147
313.0000	168.668
313.2000	172.795
313.4000	175.476
313.6000	178.396
313.8000	182.539
314.0000	185.417
314.2000	189.676
314.4000	192.464
314.6000	195.274
314.8000	199.624
315.0000	202.863
315.2000	205.662
315.4000	209.782
315.6000	212.617
315.8000	217.091
316.0000	220.244
316.2000	223.268
316.4000	228.17
316.6000	231.173
316.8000	235.6
317.0000	238.727
317.2000	241.758
317.4000	246.695
317.6000	249.806
317.8000	254.904
318.0000	257.889
318.2000	261.079
318.4000	266.026
318.6000	269.75
318.8000	274.931
319.0000	278.05
319.2000	281.802
319.4000	287.126
319.6000	290.373
319.8000	295.723
320.0000	299.445
320.2000	302.841
320.4000	308.128
320.6000	311.33
320.8000	316.867
321.0000	320.265
321.2000	323.747
321.4000	328.715
321.6000	332.207
321.8000	337.445
322.0000	340.688
322.2000	344.212
322.4000	349.568
322.6000	353.109
322.8000	358.274
323.0000	362.096
323.2000	365.809
323.4000	371.298
323.6000	374.749
323.8000	380.569
324.0000	384.626
324.2000	388.431
324.4000	394.341
324.6000	398.288
324.8000	402.161
325.0000	407.806
325.2000	411.691
325.4000	416.771
325.6000	419.912
325.8000	423.215
326.0000	428.172
326.2000	431.796
326.4000	436.75
326.6000	440.515
326.8000	444.067
327.0000	449.953
327.2000	453.746
327.4000	459.978
327.6000	463.95
327.8000	467.376
328.0000	472.976
328.2000	476.468
328.4000	481.615
328.6000	484.862
328.8000	488.189
329.0000	493.249
329.2000	496.89
329.4000	502.385
329.6000	505.832
329.8000	509.381
330.0000	514.774
330.2000	518.536
330.4000	524.019
330.6000	527.754
330.8000	530.994
331.0000	536.518
331.2000	540.251
331.4000	545.404
331.6000	548.26
331.8000	551.588
332.0000	556.107
332.2000	558.881
332.4000	563.329
332.6000	566.205
332.8000	568.902
333.0000	573.53
333.2000	576.03
333.4000	580.374
333.6000	583.182
333.8000	586.285
334.0000	590.166
334.2000	592.749
334.4000	596.295
334.6000	598.463
334.8000	600.434
335.0000	603.588
335.2000	605.521
335.4000	607.72
335.6000	610.69
335.8000	612.547
336.0000	615.237
336.2000	617.028
336.4000	618.594
336.6000	621.342
336.8000	623.159
337.0000	625.282
337.2000	626.793
337.4000	628.372
337.6000	630.921
337.8000	632.702
338.0000	634.951
338.2000	636.622
338.4000	637.987
338.6000	640.205
338.8000	641.507
339.0000	642.903
339.2000	644.032
339.4000	644.991
339.6000	647.028
339.8000	647.924
340.0000	649.662
340.2000	650.605
340.4000	651.795
340.6000	653.055
340.8000	654.002
341.0000	655.026
341.2000	655.772
341.4000	656.532
341.6000	657.766
341.8000	658.828
342.0000	660.383
342.2000	661.544
342.4000	662.539
342.6000	664.145
342.8000	664.913
343.0000	665.528
343.2000	666.315
343.4000	666.888
343.6000	666.79
343.8000	667.092
344.0000	667.576
344.2000	667.834
344.4000	668.057
344.6000	668.934
344.8000	669.129
345.0000	669.644
345.2000	670.498
345.4000	671.215
345.6000	671.962
345.8000	672.27
346.0000	672.089
346.2000	672.041
346.4000	671.63
346.6000	671.141
346.8000	670.873
347.0000	670.178
347.2000	669.266
347.4000	668.841
347.6000	668.382
347.8000	668.238
348.0000	667.933
348.2000	667.946
348.4000	667.584
348.6000	667.399
348.8000	666.954
349.0000	666.381
349.2000	665.68
349.4000	665.068
349.6000	664.35
349.8000	664.026
350.0000	663.29
350.2000	661.937
350.4000	661.287
350.6000	660.34
350.8000	659.517
351.0000	658.623
351.2000	657.405
351.4000	656.619
351.6000	655.411
351.8000	654.576
352.0000	653.55
352.2000	652.525
352.4000	651.796
352.6000	650.452
352.8000	650.03
353.0000	648.707
353.2000	646.929
353.4000	646.137
353.6000	644.918
353.8000	643.838
354.0000	642.463
354.2000	640.63
354.4000	639.161
354.6000	637.462
354.8000	636.318
355.0000	635.04
355.2000	633.408
355.4000	631.878
355.6000	629.971
355.8000	628.65
356.0000	627.082
356.2000	624.839
356.4000	623.278
356.6000	621.253
356.8000	618.562
357.0000	616.33
357.2000	614.522
357.4000	613.032
357.6000	611.717
357.8000	609.791
358.0000	608.739
358.2000	606.579
358.4000	605.207
358.6000	604.026
358.8000	601.657
359.0000	600.058
359.2000	597.568
359.4000	595.856
359.6000	594.181
359.8000	591.81
360.0000	590.376
360.2000	588.299
360.4000	586.76
360.6000	584.534
360.8000	581.769
361.0000	580.021
361.2000	577.1
361.4000	575.132
361.6000	573.017
361.8000	569.784
362.0000	567.912
362.2000	565.6
362.4000	563.829
362.6000	562.028
362.8000	559.093
363.0000	556.809
363.2000	553.684
363.4000	551.857
363.6000	549.83
363.8000	546.589
364.0000	544.238
364.2000	541.281
364.4000	539.652
364.6000	538.124
364.8000	535.729
365.0000	533.708
365.2000	530.839
365.4000	529.234
365.6000	527.048
365.8000	524.141
366.0000	522.312
366.2000	518.716
366.4000	516.989
366.6000	515.135
366.8000	512.018
367.0000	510.018
367.2000	508.113
367.4000	504.701
367.6000	502.948
367.8000	500.069
368.0000	497.906
368.2000	495.995
368.4000	493.017
368.6000	491.129
368.8000	488.16
369.0000	486.209
369.2000	484.193
369.4000	480.948
369.6000	478.879
369.8000	475.973
370.0000	473.909
370.2000	471.787
370.4000	469.145
370.6000	466.808
370.8000	463.475
371.0000	461.609
371.2000	459.584
371.4000	456.381
371.6000	454.05
371.8000	450.985
372.0000	448.638
372.2000	446.673
372.4000	443.969
372.6000	442.053
372.8000	438.687
373.0000	436.685
373.2000	434.404
373.4000	431.241
373.6000	429.219
373.8000	426.154
374.0000	423.933
374.2000	421.865
374.4000	418.811
374.6000	416.96
374.8000	414.148
375.0000	412.069
375.2000	410.247
375.4000	407.072
375.6000	404.918
375.8000	401.866
376.0000	399.489
376.2000	397.363
376.4000	394.398
376.6000	392.515
376.8000	389.33
377.0000	387.183
377.2000	385.003
377.4000	381.774
377.6000	379.896
377.8000	378.14
378.0000	375.217
378.2000	373.101
378.4000	369.77
378.6000	368.09
378.8000	366.282
379.0000	363.583
379.2000	361.877
379.4000	358.793
379.6000	356.824
379.8000	354.786
380.0000	351.85
380.2000	349.911
380.4000	346.938
380.6000	345.157
380.8000	343.343
381.0000	340.607
381.2000	338.558
381.4000	335.913
381.6000	334.009
381.8000	332.034
382.0000	329.021
382.2000	327.084
382.4000	323.724
382.6000	321.637
382.8000	319.961
383.0000	316.791
383.2000	314.806
383.4000	311.946
383.6000	310.22
383.8000	308.426
384.0000	306.029
384.2000	304.165
384.4000	301.32
384.6000	299.772
384.8000	298.071
385.0000	295.649
385.2000	294.055
385.4000	291.512
385.6000	289.506
385.8000	288.104
386.0000	285.538
386.2000	283.68
386.4000	281.109
386.6000	279.4
386.8000	277.81
387.0000	275.17
387.2000	273.615
387.4000	271.869
387.6000	269.387
387.8000	267.873
388.0000	265.456
388.2000	263.691
388.4000	262.126
388.6000	259.748
388.8000	257.863
389.0000	255.788
389.2000	254.199
389.4000	252.368
389.6000	250.059
389.8000	248.375
390.0000	245.836
390.2000	244.273
390.4000	242.962
390.6000	240.697
390.8000	238.93
391.0000	236.862
391.2000	235.386
391.4000	233.715
391.6000	231.434
391.8000	229.89
392.0000	227.504
392.2000	226.109
392.4000	224.8
392.6000	222.658
392.8000	221.121
393.0000	219.138
393.2000	218.015
393.4000	216.722
393.6000	214.827
393.8000	213.677
394.0000	211.379
394.2000	209.974
394.4000	208.714
394.6000	206.9
394.8000	205.573
395.0000	203.412
395.2000	202.039
395.4000	200.654
395.6000	198.503
395.8000	197.368
396.0000	195.394
396.2000	194.188
396.4000	192.825
396.6000	191.083
396.8000	189.83
397.0000	187.929
397.2000	186.771
397.4000	185.645
397.6000	183.755
397.8000	182.519
398.0000	181.408
398.2000	179.702
398.4000	178.336
398.6000	176.436
398.8000	175.351
399.0000	174.065
399.2000	172.075
399.4000	170.907
399.6000	169.078
399.8000	167.876
400.0000	166.719
