TITLE	0,201
DATA TYPE	
ORIGIN	JASCO
OWNER	
DATE	13/10/07
TIME	12:12:18
SPECTROMETER/DATA SYSTEM	
RESOLUTION	
DELTAX	0.2
XUNITS	NANOMETERS
YUNITS	INTENSITY
FIRSTX	300.0000
LASTX	400.0000
NPOINTS	501
FIRSTY	999.99902
MAXY	999.99902
MINY	126.56395
XYDATA
300.0000	999.999
300.2000	999.999
300.4000	999.999
300.6000	999.999
300.8000	999.999
301.0000	999.999
301.2000	999.999
301.4000	999.999
301.6000	999.999
301.8000	999.999
302.0000	999.999
302.2000	999.999
302.4000	999.999
302.6000	999.999
302.8000	999.999
303.0000	999.999
303.2000	999.999
303.4000	999.999
303.6000	999.999
303.8000	999.999
304.0000	999.999
304.2000	999.999
304.4000	999.999
304.6000	999.999
304.8000	999.999
305.0000	999.999
305.2000	872.907
305.4000	667.542
305.6000	556.654
305.8000	421.982
306.0000	353.807
306.2000	297.388
306.4000	234.236
306.6000	203.407
306.8000	170.115
307.0000	155.304
307.2000	144.281
307.4000	133.982
307.6000	130.068
307.8000	127.089
308.0000	126.564
308.2000	127.095
308.4000	128.813
308.6000	130.354
308.8000	132.734
309.0000	134.706
309.2000	136.454
309.4000	139.299
309.6000	141.364
309.8000	144.69
310.0000	146.972
310.2000	149.051
310.4000	152.194
310.6000	154.443
310.8000	157.709
311.0000	160.116
311.2000	162.23
311.4000	165.595
311.6000	167.591
311.8000	169.757
312.0000	173.208
312.2000	175.582
312.4000	179.191
312.6000	181.464
312.8000	183.943
313.0000	187.371
313.2000	189.792
313.4000	193.682
313.6000	196.334
313.8000	198.913
314.0000	202.739
314.2000	205.357
314.4000	209.243
314.6000	212.015
314.8000	214.675
315.0000	218.412
315.2000	220.982
315.4000	224.881
315.6000	227.314
315.8000	229.703
316.0000	233.735
316.2000	236.428
316.4000	240.392
316.6000	243.317
316.8000	246.18
317.0000	250.109
317.2000	252.892
317.4000	257.178
317.6000	259.833
317.8000	262.44
318.0000	266.601
318.2000	269.318
318.4000	273.753
318.6000	276.909
318.8000	279.59
319.0000	283.937
319.2000	287.026
319.4000	291.458
319.6000	294.51
319.8000	297.6
320.0000	301.761
320.2000	304.553
320.4000	309.054
320.6000	311.942
320.8000	314.698
321.0000	318.998
321.2000	321.806
321.4000	326.001
321.6000	329.104
321.8000	332.111
322.0000	336.467
322.2000	339.611
322.4000	342.777
322.6000	346.848
322.8000	349.962
323.0000	354.404
323.2000	357.27
323.4000	359.669
323.6000	363.651
323.8000	366.381
324.0000	370.52
324.2000	373.374
324.4000	376.339
324.6000	380.561
324.8000	383.23
325.0000	387.638
325.2000	390.663
325.4000	393.609
325.6000	398.153
325.8000	401.272
326.0000	405.664
326.2000	408.689
326.4000	411.613
326.6000	416.403
326.8000	419.505
327.0000	423.853
327.2000	426.569
327.4000	429.403
327.6000	433.462
327.8000	436.119
328.0000	440.36
328.2000	442.835
328.4000	445.492
328.6000	449.53
328.8000	452.471
329.0000	456.495
329.2000	459.324
329.4000	461.997
329.6000	466.333
329.8000	469.277
330.0000	473.402
330.2000	476.284
330.4000	479.104
330.6000	482.67
330.8000	484.996
331.0000	488.764
331.2000	491.207
331.4000	493.327
331.6000	496.684
331.8000	498.749
332.0000	502.102
332.2000	504.68
332.4000	506.983
332.6000	510.992
332.8000	513.378
333.0000	515.16
333.2000	518.325
333.4000	520.16
333.6000	523.07
333.8000	524.738
334.0000	526.229
334.2000	528.568
334.4000	530.318
334.6000	532.875
334.8000	534.085
335.0000	535.586
335.2000	537.241
335.4000	538.565
335.6000	540.658
335.8000	542.015
336.0000	542.471
336.2000	544.066
336.4000	545.358
336.6000	546.585
336.8000	547.717
337.0000	548.537
337.2000	549.539
337.4000	550.065
337.6000	551.605
337.8000	552.357
338.0000	553.029
338.2000	554.439
338.4000	555.52
338.6000	556.573
338.8000	557.184
339.0000	558.016
339.2000	558.881
339.4000	559.189
339.6000	560.226
339.8000	560.415
340.0000	560.964
340.2000	561.428
340.4000	562.037
340.6000	562.699
340.8000	563.417
341.0000	563.86
341.2000	564.879
341.4000	565.537
341.6000	565.915
341.8000	565.979
342.0000	566.357
342.2000	566.595
342.4000	566.562
342.6000	566.435
342.8000	566.774
343.0000	566.753
343.2000	566.786
343.4000	567.038
343.6000	567.359
343.8000	567.721
344.0000	567.678
344.2000	568.387
344.4000	568.401
344.6000	568.312
344.8000	568.161
345.0000	567.951
345.2000	567.367
345.4000	567.281
345.6000	566.966
345.8000	566.409
346.0000	565.835
346.2000	564.797
346.4000	564.352
346.6000	563.97
346.8000	563.747
347.0000	563.192
347.2000	562.675
347.4000	562.232
347.6000	562.229
347.8000	561.125
348.0000	560.866
348.2000	560.179
348.4000	559.765
348.6000	558.932
348.8000	557.775
349.0000	556.778
349.2000	554.884
349.4000	554.171
349.6000	553.376
349.8000	551.727
350.0000	550.631
350.2000	549.549
350.4000	548.835
350.6000	548.182
350.8000	547.563
351.0000	547.317
351.2000	546.389
351.4000	545.693
351.6000	544.901
351.8000	543.639
352.0000	542.407
352.2000	540.366
352.4000	539.182
352.6000	537.879
352.8000	535.991
353.0000	534.773
353.2000	533.558
353.4000	531.368
353.6000	530.441
353.8000	528.706
354.0000	527.365
354.2000	526.104
354.4000	524.504
354.6000	522.885
354.8000	520.898
355.0000	519.881
355.2000	518.628
355.4000	516.768
355.6000	515.724
355.8000	513.649
356.0000	512.391
356.2000	510.907
356.4000	508.721
356.6000	507.27
356.8000	505.359
357.0000	503.735
357.2000	502.06
357.4000	499.593
357.6000	498.036
357.8000	495.926
358.0000	494.324
358.2000	493.124
358.4000	491.17
358.6000	489.728
358.8000	487.995
359.0000	486.933
359.2000	485.545
359.4000	482.961
359.6000	481.366
359.8000	478.822
360.0000	477.267
360.2000	475.715
360.4000	473.067
360.6000	471.374
360.8000	469.007
361.0000	467.64
361.2000	466.178
361.4000	464.303
361.6000	462.543
361.8000	460.09
362.0000	458.632
362.2000	457.286
362.4000	455.168
362.6000	453.67
362.8000	450.913
363.0000	449.026
363.2000	447.567
363.4000	445.177
363.6000	443.72
363.8000	441.787
364.0000	439.238
364.2000	437.567
364.4000	434.999
364.6000	433.213
364.8000	431.687
365.0000	428.361
365.2000	426.664
365.4000	423.954
365.6000	421.954
365.8000	420.59
366.0000	418.067
366.2000	416.434
366.4000	413.902
366.6000	412.618
366.8000	411.163
367.0000	408.805
367.2000	407.125
367.4000	404.21
367.6000	402.118
367.8000	400.184
368.0000	397.659
368.2000	395.829
368.4000	393.145
368.6000	391.491
368.8000	389.948
369.0000	387.439
369.2000	385.646
369.4000	383.505
369.6000	381.689
369.8000	380.033
370.0000	377.274
370.2000	375.592
370.4000	372.605
370.6000	370.785
370.8000	369.084
371.0000	366.094
371.2000	364.353
371.4000	361.799
371.6000	360.059
371.8000	358.35
372.0000	355.534
372.2000	354.067
372.4000	351.437
372.6000	349.972
372.8000	348.438
373.0000	345.746
373.2000	343.726
373.4000	341.013
373.6000	339.569
373.8000	337.509
374.0000	334.489
374.2000	332.938
374.4000	331.115
374.6000	328.454
374.8000	326.887
375.0000	324.557
375.2000	323.05
375.4000	321.351
375.6000	318.904
375.8000	317.011
376.0000	314.665
376.2000	312.929
376.4000	311.11
376.6000	308.883
376.8000	307.047
377.0000	304.168
377.2000	302.615
377.4000	301.233
377.6000	298.634
377.8000	296.899
378.0000	294.689
378.2000	293.069
378.4000	291.402
378.6000	289.209
378.8000	287.761
379.0000	285.404
379.2000	283.732
379.4000	281.982
379.6000	279.639
379.8000	277.851
380.0000	275.438
380.2000	273.719
380.4000	271.871
380.6000	269.501
380.8000	267.962
381.0000	265.807
381.2000	264.104
381.4000	262.63
381.6000	260.43
381.8000	259.157
382.0000	257.024
382.2000	255.212
382.4000	253.54
382.6000	251.524
382.8000	250.247
383.0000	247.979
383.2000	246.355
383.4000	244.674
383.6000	242.361
383.8000	240.984
384.0000	239.227
384.2000	237.703
384.4000	235.902
384.6000	233.704
384.8000	232.411
385.0000	231.01
385.2000	228.951
385.4000	227.708
385.6000	225.374
385.8000	223.963
386.0000	222.663
386.2000	220.729
386.4000	219.399
386.6000	217.18
386.8000	215.685
387.0000	214.321
387.2000	212.624
387.4000	211.298
387.6000	209.383
387.8000	208.136
388.0000	206.971
388.2000	205.133
388.4000	203.876
388.6000	202.129
388.8000	200.685
389.0000	199.321
389.2000	197.133
389.4000	195.818
389.6000	193.975
389.8000	192.614
390.0000	191.348
390.2000	189.316
390.4000	188.293
390.6000	186.588
390.8000	185.498
391.0000	184.582
391.2000	182.597
391.4000	181.445
391.6000	179.824
391.8000	178.649
392.0000	177.596
392.2000	175.712
392.4000	174.679
392.6000	172.679
392.8000	171.671
393.0000	170.644
393.2000	168.911
393.4000	168.098
393.6000	166.365
393.8000	165.302
394.0000	164.553
394.2000	163.086
394.4000	162.065
394.6000	160.504
394.8000	159.503
395.0000	158.319
395.2000	156.615
395.4000	155.482
395.6000	154.238
395.8000	152.307
396.0000	151.295
396.2000	149.867
396.4000	149.108
396.6000	148.115
396.8000	146.704
397.0000	145.901
397.2000	144.56
397.4000	143.772
397.6000	142.979
397.8000	141.391
398.0000	140.486
398.2000	139.028
398.4000	137.97
398.6000	136.85
398.8000	135.406
399.0000	134.592
399.2000	133.184
399.4000	132.368
399.6000	131.523
399.8000	130.143
400.0000	129.403
