TITLE	0,082
DATA TYPE	
ORIGIN	JASCO
OWNER	
DATE	13/10/07
TIME	12:01:52
SPECTROMETER/DATA SYSTEM	
RESOLUTION	
DELTAX	0.2
XUNITS	NANOMETERS
YUNITS	INTENSITY
FIRSTX	300.0000
LASTX	400.0000
NPOINTS	501
FIRSTY	999.99902
MAXY	999.99902
MINY	120.35252
XYDATA
300.0000	999.999
300.2000	999.999
300.4000	999.999
300.6000	999.999
300.8000	999.999
301.0000	999.999
301.2000	999.999
301.4000	999.999
301.6000	999.999
301.8000	999.999
302.0000	999.999
302.2000	999.999
302.4000	999.999
302.6000	999.999
302.8000	999.999
303.0000	999.999
303.2000	999.999
303.4000	999.999
303.6000	999.999
303.8000	999.999
304.0000	999.999
304.2000	999.999
304.4000	999.999
304.6000	999.999
304.8000	999.999
305.0000	970.495
305.2000	820.757
305.4000	664.177
305.6000	537.065
305.8000	419.321
306.0000	340.274
306.2000	277.161
306.4000	229.393
306.6000	194.241
306.8000	165.176
307.0000	147.853
307.2000	135.707
307.4000	128.02
307.6000	123.503
307.8000	120.759
308.0000	120.353
308.2000	120.958
308.4000	122.08
308.6000	123.729
308.8000	125.893
309.0000	127.662
309.2000	130.073
309.4000	132.319
309.6000	134.625
309.8000	137.255
310.0000	139.356
310.2000	142.217
310.4000	144.635
310.6000	147.18
310.8000	150.107
311.0000	152.422
311.2000	155.458
311.4000	158.01
311.6000	160.611
311.8000	163.192
312.0000	165.995
312.2000	169.237
312.4000	171.944
312.6000	174.825
312.8000	177.737
313.0000	180.697
313.2000	183.994
313.4000	187.087
313.6000	189.99
313.8000	192.965
314.0000	195.864
314.2000	199.431
314.4000	202.421
314.6000	205.356
314.8000	208.446
315.0000	211.484
315.2000	214.513
315.4000	218.157
315.6000	221.463
315.8000	224.806
316.0000	227.852
316.2000	231.19
316.4000	235.051
316.6000	238.474
316.8000	241.7
317.0000	245.006
317.2000	248.369
317.4000	252.139
317.6000	255.7
317.8000	259.161
318.0000	262.362
318.2000	265.771
318.4000	269.782
318.6000	273.161
318.8000	276.763
319.0000	280.378
319.2000	283.903
319.4000	287.907
319.6000	291.023
319.8000	295.072
320.0000	298.773
320.2000	302.399
320.4000	306.41
320.6000	309.46
320.8000	313.641
321.0000	317.446
321.2000	321.211
321.4000	325.528
321.6000	328.715
321.8000	332.872
322.0000	336.768
322.2000	340.395
322.4000	344.035
322.6000	347.568
322.8000	351.684
323.0000	355.389
323.2000	359.115
323.4000	362.636
323.6000	366.441
323.8000	370.509
324.0000	374.334
324.2000	378.055
324.4000	381.879
324.6000	385.575
324.8000	389.075
325.0000	393.315
325.2000	397.001
325.4000	400.752
325.6000	404.312
325.8000	408.021
326.0000	412.254
326.2000	415.834
326.4000	419.534
326.6000	423.318
326.8000	426.899
327.0000	431.182
327.2000	434.775
327.4000	438.449
327.6000	442.171
327.8000	445.819
328.0000	450.046
328.2000	453.9
328.4000	457.52
328.6000	461.325
328.8000	464.829
329.0000	469.204
329.2000	472.148
329.4000	476.216
329.6000	479.595
329.8000	483.049
330.0000	487.011
330.2000	490.02
330.4000	493.833
330.6000	497.073
330.8000	500.549
331.0000	504.402
331.2000	507.585
331.4000	511.529
331.6000	514.885
331.8000	517.876
332.0000	521.675
332.2000	524.341
332.4000	527.757
332.6000	530.618
332.8000	533.216
333.0000	535.901
333.2000	538.474
333.4000	541.543
333.6000	544.282
333.8000	546.639
334.0000	549.048
334.2000	551.453
334.4000	554.49
334.6000	556.576
334.8000	558.767
335.0000	560.646
335.2000	562.577
335.4000	564.329
335.6000	566.326
335.8000	568.005
336.0000	569.592
336.2000	571.129
336.4000	572.634
336.6000	574.374
336.8000	575.879
337.0000	577.409
337.2000	578.979
337.4000	580.284
337.6000	581.75
337.8000	583.208
338.0000	584.428
338.2000	585.792
338.4000	586.906
338.6000	588.214
338.8000	589.28
339.0000	590.403
339.2000	591.541
339.4000	592.4
339.6000	593.474
339.8000	594.03
340.0000	594.914
340.2000	595.789
340.4000	596.458
340.6000	597.382
340.8000	598.097
341.0000	599.017
341.2000	599.666
341.4000	600.422
341.6000	601.414
341.8000	602.185
342.0000	603.046
342.2000	603.888
342.4000	604.35
342.6000	604.995
342.8000	605.682
343.0000	605.939
343.2000	606.224
343.4000	606.316
343.6000	606.526
343.8000	606.361
344.0000	606.263
344.2000	606.294
344.4000	605.969
344.6000	605.846
344.8000	605.955
345.0000	606.203
345.2000	605.999
345.4000	605.911
345.6000	605.821
345.8000	605.75
346.0000	605.657
346.2000	605.644
346.4000	605.727
346.6000	605.568
346.8000	605.522
347.0000	605.362
347.2000	604.888
347.4000	604.584
347.6000	604.107
347.8000	603.404
348.0000	602.566
348.2000	601.79
348.4000	600.921
348.6000	600.221
348.8000	599.594
349.0000	599.091
349.2000	598.367
349.4000	597.959
349.6000	597.346
349.8000	596.655
350.0000	595.544
350.2000	594.559
350.4000	593.969
350.6000	592.736
350.8000	591.658
351.0000	590.631
351.2000	589.204
351.4000	588.294
351.6000	587.197
351.8000	586.083
352.0000	584.854
352.2000	583.697
352.4000	582.882
352.6000	581.676
352.8000	580.827
353.0000	579.518
353.2000	578.165
353.4000	577.227
353.6000	575.802
353.8000	574.339
354.0000	572.809
354.2000	571.185
354.4000	569.472
354.6000	567.637
354.8000	566.169
355.0000	564.379
355.2000	562.736
355.4000	561.345
355.6000	559.619
355.8000	558.276
356.0000	556.981
356.2000	555.433
356.4000	553.678
356.6000	552.403
356.8000	550.641
357.0000	549.148
357.2000	547.585
357.4000	546.063
357.6000	544.326
357.8000	542.419
358.0000	540.835
358.2000	538.919
358.4000	537.138
358.6000	535.267
358.8000	532.959
359.0000	531.058
359.2000	529.139
359.4000	527.308
359.6000	525.451
359.8000	523.638
360.0000	521.954
360.2000	520.255
360.4000	518.384
360.6000	516.595
360.8000	514.421
361.0000	512.57
361.2000	510.512
361.4000	508.562
361.6000	506.372
361.8000	503.922
362.0000	502.33
362.2000	500.117
362.4000	497.978
362.6000	496.098
362.8000	493.736
363.0000	492.122
363.2000	489.776
363.4000	487.772
363.6000	485.851
363.8000	483.43
364.0000	481.702
364.2000	479.447
364.4000	477.613
364.6000	475.766
364.8000	473.636
365.0000	471.492
365.2000	469.117
365.4000	466.938
365.6000	464.766
365.8000	462.606
366.0000	460.444
366.2000	457.879
366.4000	455.675
366.6000	453.619
366.8000	451.35
367.0000	449.274
367.2000	447.164
367.4000	444.803
367.6000	442.591
367.8000	440.265
368.0000	438.282
368.2000	436.021
368.4000	433.777
368.6000	431.569
368.8000	429.531
369.0000	427.286
369.2000	425.055
369.4000	422.727
369.6000	420.595
369.8000	418.509
370.0000	416.414
370.2000	414.064
370.4000	411.395
370.6000	409.151
370.8000	406.816
371.0000	404.419
371.2000	402.182
371.4000	399.657
371.6000	397.892
371.8000	395.381
372.0000	393.442
372.2000	391.412
372.4000	389.251
372.6000	387.538
372.8000	385.242
373.0000	382.745
373.2000	380.605
373.4000	378.285
373.6000	376.338
373.8000	373.579
374.0000	371.228
374.2000	369.016
374.4000	366.735
374.6000	364.59
374.8000	362.277
375.0000	359.991
375.2000	357.827
375.4000	355.859
375.6000	354.003
375.8000	351.534
376.0000	349.41
376.2000	347.183
376.4000	344.969
376.6000	342.715
376.8000	340.347
377.0000	338.053
377.2000	336.012
377.4000	333.742
377.6000	331.623
377.8000	329.59
378.0000	327.445
378.2000	325.202
378.4000	323.068
378.6000	321.167
378.8000	319.124
379.0000	316.586
379.2000	314.423
379.4000	312.29
379.6000	310
379.8000	307.995
380.0000	305.738
380.2000	303.692
380.4000	301.451
380.6000	299.577
380.8000	297.655
381.0000	295.495
381.2000	293.736
381.4000	291.938
381.6000	290.152
381.8000	288.069
382.0000	285.981
382.2000	284.328
382.4000	282.159
382.6000	280.168
382.8000	278.306
383.0000	275.979
383.2000	274.185
383.4000	271.982
383.6000	270.219
383.8000	268.495
384.0000	266.475
384.2000	264.93
384.4000	262.76
384.6000	261.038
384.8000	259.286
385.0000	257.499
385.2000	255.754
385.4000	253.482
385.6000	251.764
385.8000	249.941
386.0000	248.124
386.2000	246.532
386.4000	244.497
386.6000	242.615
386.8000	240.774
387.0000	239.061
387.2000	237.301
387.4000	235.552
387.6000	233.627
387.8000	231.948
388.0000	230.13
388.2000	228.429
388.4000	227.033
388.6000	225.08
388.8000	223.639
389.0000	222.01
389.2000	220.472
389.4000	218.884
389.6000	217.387
389.8000	215.933
390.0000	214.156
390.2000	212.564
390.4000	211.026
390.6000	209.142
390.8000	207.559
391.0000	205.928
391.2000	204.229
391.4000	202.694
391.6000	201.096
391.8000	199.876
392.0000	197.985
392.2000	196.628
392.4000	195.347
392.6000	193.537
392.8000	192.377
393.0000	190.793
393.2000	189.242
393.4000	187.879
393.6000	186.274
393.8000	185.2
394.0000	183.476
394.2000	182.276
394.4000	180.968
394.6000	179.446
394.8000	178.339
395.0000	176.736
395.2000	175.532
395.4000	174.101
395.6000	172.655
395.8000	171.231
396.0000	169.651
396.2000	168.306
396.4000	167.126
396.6000	165.739
396.8000	164.349
397.0000	162.827
397.2000	161.644
397.4000	160.457
397.6000	159.271
397.8000	157.985
398.0000	156.796
398.2000	155.484
398.4000	154.429
398.6000	153.383
398.8000	152.322
399.0000	151.274
399.2000	149.991
399.4000	148.737
399.6000	147.408
399.8000	146.27
400.0000	145.169
